Wavelength (nm)	311 ZnC-P20 (SE414)
300.00	0.044134
301.00	0.043527
302.00	0.043346
303.00	0.042932
304.00	0.042586
305.00	0.042046
306.00	0.041428
307.00	0.041152
308.00	0.040793
309.00	0.040470
310.00	0.040061
311.00	0.039780
312.00	0.039561
313.00	0.039729
314.00	0.039878
315.00	0.040058
316.00	0.040542
317.00	0.041033
318.00	0.041550
319.00	0.042190
320.00	0.042953
321.00	0.043565
322.00	0.043976
323.00	0.044824
324.00	0.045090
325.00	0.045567
326.00	0.045716
327.00	0.045869
328.00	0.046077
329.00	0.045824
330.00	0.045916
331.00	0.045974
332.00	0.045933
333.00	0.045939
334.00	0.045799
335.00	0.045832
336.00	0.045891
337.00	0.045914
338.00	0.046079
339.00	0.046250
340.00	0.046677
341.00	0.047060
342.00	0.047624
343.00	0.048279
344.00	0.048990
345.00	0.049706
346.00	0.050585
347.00	0.051473
348.00	0.052211
349.00	0.052839
350.00	0.053480
351.00	0.054036
352.00	0.054724
353.00	0.055198
354.00	0.055462
355.00	0.055803
356.00	0.056497
357.00	0.057190
358.00	0.057355
359.00	0.058112
360.00	0.058597
361.00	0.059056
362.00	0.059854
363.00	0.060756
364.00	0.061855
365.00	0.063289
366.00	0.065461
367.00	0.067989
368.00	0.070919
369.00	0.075134
370.00	0.079907
371.00	0.086073
372.00	0.093210
373.00	0.10165
374.00	0.11126
375.00	0.12205
376.00	0.13345
377.00	0.14600
378.00	0.15831
379.00	0.17055
380.00	0.18124
381.00	0.19047
382.00	0.19765
383.00	0.20225
384.00	0.20494
385.00	0.20625
386.00	0.20734
387.00	0.20915
388.00	0.21347
389.00	0.22096
390.00	0.23406
391.00	0.25364
392.00	0.28139
393.00	0.31639
394.00	0.35875
395.00	0.41126
396.00	0.47337
397.00	0.54787
398.00	0.63035
399.00	0.71418
400.00	0.79975
401.00	0.88465
402.00	0.95506
403.00	0.99658
404.00	1.00000
405.00	0.95669
406.00	0.87773
407.00	0.76297
408.00	0.62847
409.00	0.49843
410.00	0.38305
411.00	0.28254
412.00	0.20295
413.00	0.14358
414.00	0.10287
415.00	0.071966
416.00	0.050971
417.00	0.035971
418.00	0.026012
419.00	0.019123
420.00	0.014347
421.00	0.011034
422.00	0.0089026
423.00	0.0078043
424.00	0.0070478
425.00	0.0063692
426.00	0.0055898
427.00	0.0051765
428.00	0.0046082
429.00	0.0045065
430.00	0.0041173
431.00	0.0039706
432.00	0.0039906
433.00	0.0040905
434.00	0.0034702
435.00	0.0036584
436.00	0.0037947
437.00	0.0036101
438.00	0.0035117
439.00	0.0029584
440.00	0.0031803
441.00	0.0030190
442.00	0.0029525
443.00	0.0030477
444.00	0.0030915
445.00	0.0030901
446.00	0.0032232
447.00	0.0029374
448.00	0.0031626
449.00	0.0031457
450.00	0.0031530
451.00	0.0031863
452.00	0.0032455
453.00	0.0033553
454.00	0.0036092
455.00	0.0035044
456.00	0.0034934
457.00	0.0036858
458.00	0.0038918
459.00	0.0041037
460.00	0.0043771
461.00	0.0044851
462.00	0.0045781
463.00	0.0052945
464.00	0.0049304
465.00	0.0052777
466.00	0.0052025
467.00	0.0055192
468.00	0.0058104
469.00	0.0057238
470.00	0.0063473
471.00	0.0064074
472.00	0.0063441
473.00	0.0060319
474.00	0.0055320
475.00	0.0058961
476.00	0.0062502
477.00	0.0065073
478.00	0.0062753
479.00	0.0062926
480.00	0.0065934
481.00	0.0069493
482.00	0.0071512
483.00	0.0071808
484.00	0.0078248
485.00	0.0083471
486.00	0.0086524
487.00	0.0093761
488.00	0.010927
489.00	0.011062
490.00	0.011881
491.00	0.013219
492.00	0.014175
493.00	0.014428
494.00	0.016051
495.00	0.018094
496.00	0.018945
497.00	0.019739
498.00	0.020677
499.00	0.021993
500.00	0.022864
501.00	0.023556
502.00	0.023112
503.00	0.023094
504.00	0.022638
505.00	0.022309
506.00	0.021473
507.00	0.021205
508.00	0.020315
509.00	0.020021
510.00	0.019063
511.00	0.018396
512.00	0.017235
513.00	0.016113
514.00	0.015832
515.00	0.015496
516.00	0.014983
517.00	0.014118
518.00	0.013934
519.00	0.013282
520.00	0.013697
521.00	0.013189
522.00	0.012361
523.00	0.012678
524.00	0.012481
525.00	0.012674
526.00	0.012691
527.00	0.012687
528.00	0.012473
529.00	0.012092
530.00	0.011911
531.00	0.011684
532.00	0.011863
533.00	0.011787
534.00	0.011571
535.00	0.011481
536.00	0.011092
537.00	0.010949
538.00	0.010716
539.00	0.010243
540.00	0.0099754
541.00	0.010205
542.00	0.0098688
543.00	0.010024
544.00	0.0094208
545.00	0.0095461
546.00	0.0095156
547.00	0.0092668
548.00	0.0094399
549.00	0.0098633
550.00	0.010816
551.00	0.011658
552.00	0.012417
553.00	0.014092
554.00	0.016239
555.00	0.018232
556.00	0.019509
557.00	0.021863
558.00	0.023281
559.00	0.024697
560.00	0.026284
561.00	0.027901
562.00	0.029144
563.00	0.029853
564.00	0.030251
565.00	0.030910
566.00	0.030594
567.00	0.029978
568.00	0.029684
569.00	0.029374
570.00	0.029485
571.00	0.029535
572.00	0.029421
573.00	0.028876
574.00	0.027749
575.00	0.027078
576.00	0.026128
577.00	0.024810
578.00	0.024225
579.00	0.024236
580.00	0.023955
581.00	0.023532
582.00	0.023117
583.00	0.022965
584.00	0.021885
585.00	0.020023
586.00	0.019520
587.00	0.018691
588.00	0.018051
589.00	0.018688
590.00	0.019619
591.00	0.021078
592.00	0.023440
593.00	0.025840
594.00	0.028819
595.00	0.032204
596.00	0.035682
597.00	0.040509
598.00	0.046532
599.00	0.054901
600.00	0.066977
601.00	0.083872
602.00	0.10682
603.00	0.13701
604.00	0.16856
605.00	0.20490
606.00	0.23753
607.00	0.26047
608.00	0.27217
609.00	0.26946
610.00	0.25332
611.00	0.22832
612.00	0.19780
613.00	0.16438
614.00	0.13357
615.00	0.10712
616.00	0.085600
617.00	0.067339
618.00	0.053462
619.00	0.042879
620.00	0.033804
621.00	0.027987
622.00	0.021584
623.00	0.017497
624.00	0.014201
625.00	0.011498
626.00	0.0095388
627.00	0.0076357
628.00	0.0064125
629.00	0.0050416
630.00	0.0042882
631.00	0.0040339
632.00	0.0033800
633.00	0.0030418
634.00	0.0029502
635.00	0.0029616
636.00	0.0028832
637.00	0.0029096
638.00	0.0029602
639.00	0.0026467
640.00	0.0023691
641.00	0.0031042
642.00	0.0025377
643.00	0.0021435
644.00	0.0025532
645.00	0.0023946
646.00	0.0017689
647.00	0.0016910
648.00	0.0015780
649.00	0.0012074
650.00	0.0019483
651.00	0.0019976
652.00	0.0013788
653.00	0.0010475
654.00	0.0017566
655.00	0.00099369
656.00	0.0014579
657.00	0.0014080
658.00	0.0013288
659.00	0.0013287
660.00	0.0013824
661.00	0.0014572
662.00	0.0018236
663.00	0.0013961
664.00	0.0019084
665.00	0.0014850
666.00	0.0011117
667.00	0.0012986
668.00	0.0010133
669.00	0.0013323
670.00	0.0014330
671.00	0.0012886
672.00	0.00099096
673.00	0.0010488
674.00	0.0012179
675.00	0.0013291
676.00	0.00076810
677.00	0.0010406
678.00	0.00077129
679.00	0.00090802
680.00	0.00086791
681.00	0.00073802
682.00	0.00073939
683.00	0.00086518
684.00	0.00066100
685.00	0.00076446
686.00	0.00068425
687.00	0.0011208
688.00	0.00095040
689.00	0.00093263
690.00	0.00061452
691.00	0.00058125
692.00	0.0010270
693.00	0.0011382
694.00	0.00086199
695.00	0.0012348
696.00	0.00070156
697.00	0.00054844
698.00	0.00074896
699.00	0.00090209
700.00	0.00064414
