Wavelength (nm)	L275 FbC-Br13
300.00	0.089367
301.00	0.088887
302.00	0.087975
303.00	0.086173
304.00	0.083797
305.00	0.081576
306.00	0.078698
307.00	0.075936
308.00	0.074310
309.00	0.072904
310.00	0.072484
311.00	0.072252
312.00	0.073051
313.00	0.074822
314.00	0.076674
315.00	0.079322
316.00	0.082674
317.00	0.086491
318.00	0.090618
319.00	0.094379
320.00	0.098304
321.00	0.10240
322.00	0.10639
323.00	0.11028
324.00	0.11416
325.00	0.11790
326.00	0.12134
327.00	0.12454
328.00	0.12821
329.00	0.13187
330.00	0.13618
331.00	0.14100
332.00	0.14579
333.00	0.15112
334.00	0.15685
335.00	0.16263
336.00	0.16887
337.00	0.17485
338.00	0.18044
339.00	0.18502
340.00	0.18933
341.00	0.19355
342.00	0.19803
343.00	0.20257
344.00	0.20837
345.00	0.21515
346.00	0.22289
347.00	0.23179
348.00	0.24113
349.00	0.24998
350.00	0.25826
351.00	0.26578
352.00	0.27232
353.00	0.27689
354.00	0.28061
355.00	0.28189
356.00	0.28110
357.00	0.27992
358.00	0.27731
359.00	0.27573
360.00	0.27425
361.00	0.27381
362.00	0.27503
363.00	0.27850
364.00	0.28341
365.00	0.29053
366.00	0.30047
367.00	0.31152
368.00	0.32429
369.00	0.33934
370.00	0.35598
371.00	0.37607
372.00	0.39886
373.00	0.42335
374.00	0.45025
375.00	0.48225
376.00	0.51439
377.00	0.54893
378.00	0.58593
379.00	0.62586
380.00	0.66683
381.00	0.71072
382.00	0.75481
383.00	0.79902
384.00	0.84085
385.00	0.87967
386.00	0.91398
387.00	0.94774
388.00	0.97546
389.00	0.99051
390.00	0.99716
391.00	1.0000
392.00	0.99420
393.00	0.98501
394.00	0.97409
395.00	0.96325
396.00	0.94991
397.00	0.93813
398.00	0.93032
399.00	0.92575
400.00	0.92213
401.00	0.91896
402.00	0.91232
403.00	0.89365
404.00	0.86556
405.00	0.82781
406.00	0.78110
407.00	0.72702
408.00	0.66054
409.00	0.58784
410.00	0.51311
411.00	0.43345
412.00	0.35768
413.00	0.29065
414.00	0.23587
415.00	0.18766
416.00	0.14870
417.00	0.11824
418.00	0.093648
419.00	0.075310
420.00	0.060152
421.00	0.048356
422.00	0.040226
423.00	0.034570
424.00	0.030004
425.00	0.026098
426.00	0.023252
427.00	0.020711
428.00	0.019115
429.00	0.018066
430.00	0.017083
431.00	0.016293
432.00	0.015874
433.00	0.015832
434.00	0.015693
435.00	0.015508
436.00	0.015141
437.00	0.014876
438.00	0.015087
439.00	0.015544
440.00	0.015756
441.00	0.015877
442.00	0.015725
443.00	0.015787
444.00	0.016257
445.00	0.016812
446.00	0.017511
447.00	0.017504
448.00	0.017718
449.00	0.017961
450.00	0.018538
451.00	0.019329
452.00	0.019719
453.00	0.019760
454.00	0.019338
455.00	0.018978
456.00	0.018727
457.00	0.018853
458.00	0.019147
459.00	0.018802
460.00	0.019182
461.00	0.019190
462.00	0.019415
463.00	0.020303
464.00	0.021078
465.00	0.021306
466.00	0.022298
467.00	0.022659
468.00	0.023409
469.00	0.024195
470.00	0.024971
471.00	0.026111
472.00	0.027229
473.00	0.030091
474.00	0.032826
475.00	0.035862
476.00	0.040202
477.00	0.044500
478.00	0.051336
479.00	0.058886
480.00	0.067748
481.00	0.076101
482.00	0.082221
483.00	0.085993
484.00	0.089255
485.00	0.090671
486.00	0.090410
487.00	0.089402
488.00	0.089712
489.00	0.090097
490.00	0.092249
491.00	0.096731
492.00	0.10196
493.00	0.10545
494.00	0.10663
495.00	0.10519
496.00	0.10019
497.00	0.093916
498.00	0.086776
499.00	0.078162
500.00	0.070248
501.00	0.063105
502.00	0.055550
503.00	0.047671
504.00	0.042108
505.00	0.035557
506.00	0.030956
507.00	0.027386
508.00	0.024206
509.00	0.021704
510.00	0.019312
511.00	0.017231
512.00	0.016028
513.00	0.015399
514.00	0.014971
515.00	0.014709
516.00	0.014870
517.00	0.014479
518.00	0.012661
519.00	0.012080
520.00	0.012040
521.00	0.012427
522.00	0.011017
523.00	0.0095809
524.00	0.0091454
525.00	0.0082093
526.00	0.0074437
527.00	0.0072650
528.00	0.0076460
529.00	0.0076218
530.00	0.0076857
531.00	0.0085200
532.00	0.0071904
533.00	0.0081691
534.00	0.0085780
535.00	0.0095993
536.00	0.010634
537.00	0.011363
538.00	0.011585
539.00	0.011551
540.00	0.012684
541.00	0.013411
542.00	0.012584
543.00	0.012390
544.00	0.011865
545.00	0.010108
546.00	0.010160
547.00	0.010012
548.00	0.0097472
549.00	0.0094508
550.00	0.0089650
551.00	0.0075815
552.00	0.0069466
553.00	0.0064300
554.00	0.0059691
555.00	0.0066289
556.00	0.0064135
557.00	0.0072259
558.00	0.0073797
559.00	0.0064229
560.00	0.0061774
561.00	0.0060271
562.00	0.0064567
563.00	0.0066111
564.00	0.0066318
565.00	0.0066484
566.00	0.0060933
567.00	0.0063720
568.00	0.0063448
569.00	0.0065945
570.00	0.0068141
571.00	0.0071277
572.00	0.0073052
573.00	0.0077099
574.00	0.0080064
575.00	0.0087738
576.00	0.0098407
577.00	0.011370
578.00	0.012877
579.00	0.015030
580.00	0.017934
581.00	0.021028
582.00	0.023025
583.00	0.024696
584.00	0.026918
585.00	0.027896
586.00	0.029134
587.00	0.031005
588.00	0.032244
589.00	0.033365
590.00	0.034072
591.00	0.033833
592.00	0.031862
593.00	0.029821
594.00	0.027074
595.00	0.024181
596.00	0.021649
597.00	0.019740
598.00	0.018180
599.00	0.017753
600.00	0.017389
601.00	0.018016
602.00	0.018233
603.00	0.018957
604.00	0.019291
605.00	0.019260
606.00	0.019402
607.00	0.019906
608.00	0.020734
609.00	0.022618
610.00	0.024161
611.00	0.025927
612.00	0.026538
613.00	0.026375
614.00	0.025632
615.00	0.023572
616.00	0.021498
617.00	0.019886
618.00	0.018811
619.00	0.018168
620.00	0.018635
621.00	0.020444
622.00	0.023463
623.00	0.027386
624.00	0.032543
625.00	0.038205
626.00	0.044082
627.00	0.049917
628.00	0.056597
629.00	0.062487
630.00	0.069216
631.00	0.077801
632.00	0.088897
633.00	0.10796
634.00	0.13889
635.00	0.18465
636.00	0.24924
637.00	0.32271
638.00	0.39967
639.00	0.46479
640.00	0.50832
641.00	0.51673
642.00	0.49414
643.00	0.44457
644.00	0.38265
645.00	0.31598
646.00	0.25022
647.00	0.18958
648.00	0.13961
649.00	0.10307
650.00	0.078102
651.00	0.056943
652.00	0.040742
653.00	0.031079
654.00	0.023105
655.00	0.016167
656.00	0.012961
657.00	0.015252
658.00	0.012416
659.00	0.0072395
660.00	0.0046998
661.00	0.0051111
662.00	0.0047336
663.00	0.0046922
664.00	0.0036791
665.00	0.0027424
666.00	0.0012702
667.00	0.0013969
668.00	0.0019312
669.00	0.0028004
670.00	0.00071462
671.00	0.00092054
672.00	0.0012626
673.00	0.0019318
674.00	0.0015998
675.00	0.0011294
676.00	0.00066373
677.00	0.00086373
678.00	0.0015353
679.00	0.0015265
680.00	0.00061817
681.00	0.00060515
682.00	0.00055189
683.00	0.00036314
684.00	0.00030929
685.00	0.00077201
686.00	0.00040633
687.00	0.00063710
688.00	0.00017379
689.00	0.00023118
690.00	0.00052704
691.00	0.00087616
692.00	0.00064006
693.00	0.00052645
694.00	0.00016905
695.00	-0.00047947
696.00	0.00037734
697.00	8.6803e-05
698.00	0.00038444
699.00	0.00085486
700.00	0.0010779
