Wavelength (nm)	285 OxoFbC-P10Br20
300.00	0.057203
301.00	0.056858
302.00	0.056360
303.00	0.055929
304.00	0.055397
305.00	0.055343
306.00	0.054662
307.00	0.054078
308.00	0.053726
309.00	0.053138
310.00	0.052977
311.00	0.052611
312.00	0.052332
313.00	0.052141
314.00	0.051995
315.00	0.052215
316.00	0.052190
317.00	0.052441
318.00	0.052902
319.00	0.053481
320.00	0.054217
321.00	0.055209
322.00	0.056356
323.00	0.057383
324.00	0.058630
325.00	0.059895
326.00	0.060930
327.00	0.062034
328.00	0.062897
329.00	0.063518
330.00	0.063783
331.00	0.063851
332.00	0.063307
333.00	0.062847
334.00	0.062184
335.00	0.061752
336.00	0.060993
337.00	0.060368
338.00	0.059886
339.00	0.059446
340.00	0.059235
341.00	0.059230
342.00	0.059223
343.00	0.059416
344.00	0.059522
345.00	0.059806
346.00	0.060275
347.00	0.061224
348.00	0.061869
349.00	0.063012
350.00	0.064129
351.00	0.065377
352.00	0.066453
353.00	0.067792
354.00	0.069333
355.00	0.071270
356.00	0.072737
357.00	0.074722
358.00	0.076403
359.00	0.078388
360.00	0.080325
361.00	0.082722
362.00	0.085361
363.00	0.087692
364.00	0.090026
365.00	0.092832
366.00	0.096051
367.00	0.099364
368.00	0.10305
369.00	0.10698
370.00	0.11092
371.00	0.11516
372.00	0.11979
373.00	0.12466
374.00	0.13003
375.00	0.13535
376.00	0.14095
377.00	0.14742
378.00	0.15381
379.00	0.16026
380.00	0.16687
381.00	0.17426
382.00	0.18163
383.00	0.18879
384.00	0.19634
385.00	0.20524
386.00	0.21493
387.00	0.22655
388.00	0.23984
389.00	0.25360
390.00	0.26907
391.00	0.28511
392.00	0.30160
393.00	0.31752
394.00	0.33348
395.00	0.35097
396.00	0.37039
397.00	0.39293
398.00	0.41872
399.00	0.44725
400.00	0.48081
401.00	0.52148
402.00	0.57072
403.00	0.62598
404.00	0.68931
405.00	0.76253
406.00	0.83095
407.00	0.89509
408.00	0.95158
409.00	0.99196
410.00	1.0000
411.00	0.98328
412.00	0.93808
413.00	0.88943
414.00	0.83827
415.00	0.78673
416.00	0.74423
417.00	0.70752
418.00	0.67695
419.00	0.64942
420.00	0.61571
421.00	0.57633
422.00	0.53118
423.00	0.47897
424.00	0.42129
425.00	0.36033
426.00	0.30155
427.00	0.24364
428.00	0.19778
429.00	0.15619
430.00	0.12258
431.00	0.098968
432.00	0.079432
433.00	0.062734
434.00	0.050291
435.00	0.041831
436.00	0.034331
437.00	0.028741
438.00	0.024322
439.00	0.020907
440.00	0.018135
441.00	0.015764
442.00	0.014073
443.00	0.012461
444.00	0.011469
445.00	0.010586
446.00	0.010025
447.00	0.0094960
448.00	0.0090125
449.00	0.0087877
450.00	0.0083406
451.00	0.0083232
452.00	0.0080197
453.00	0.0082707
454.00	0.0082711
455.00	0.0080355
456.00	0.0082978
457.00	0.0081569
458.00	0.0080895
459.00	0.0084608
460.00	0.0083022
461.00	0.0081953
462.00	0.0084055
463.00	0.0083280
464.00	0.0090839
465.00	0.0092486
466.00	0.0091614
467.00	0.0093269
468.00	0.0098043
469.00	0.010316
470.00	0.010785
471.00	0.010853
472.00	0.011515
473.00	0.012261
474.00	0.012539
475.00	0.013350
476.00	0.013862
477.00	0.014740
478.00	0.015124
479.00	0.015855
480.00	0.016337
481.00	0.017078
482.00	0.017335
483.00	0.017633
484.00	0.017898
485.00	0.018442
486.00	0.018700
487.00	0.018916
488.00	0.018954
489.00	0.019697
490.00	0.020685
491.00	0.021102
492.00	0.022138
493.00	0.022728
494.00	0.023711
495.00	0.024996
496.00	0.025799
497.00	0.027616
498.00	0.028833
499.00	0.030409
500.00	0.031664
501.00	0.033032
502.00	0.034524
503.00	0.035823
504.00	0.036949
505.00	0.038770
506.00	0.041128
507.00	0.043051
508.00	0.045300
509.00	0.046831
510.00	0.048047
511.00	0.048688
512.00	0.049101
513.00	0.049495
514.00	0.049402
515.00	0.048971
516.00	0.048332
517.00	0.047102
518.00	0.045227
519.00	0.043037
520.00	0.040957
521.00	0.038421
522.00	0.035446
523.00	0.031934
524.00	0.029052
525.00	0.026096
526.00	0.023896
527.00	0.021819
528.00	0.020232
529.00	0.018773
530.00	0.018367
531.00	0.017580
532.00	0.017501
533.00	0.018312
534.00	0.019430
535.00	0.021943
536.00	0.024990
537.00	0.028754
538.00	0.033066
539.00	0.037607
540.00	0.042491
541.00	0.047189
542.00	0.051353
543.00	0.054776
544.00	0.057440
545.00	0.059203
546.00	0.060355
547.00	0.060890
548.00	0.060991
549.00	0.059785
550.00	0.057203
551.00	0.054115
552.00	0.050060
553.00	0.045664
554.00	0.040987
555.00	0.036405
556.00	0.031886
557.00	0.027821
558.00	0.024079
559.00	0.020916
560.00	0.017910
561.00	0.015365
562.00	0.013176
563.00	0.011795
564.00	0.010385
565.00	0.0091844
566.00	0.0082562
567.00	0.0074164
568.00	0.0065665
569.00	0.0061101
570.00	0.0058369
571.00	0.0056944
572.00	0.0055019
573.00	0.0055939
574.00	0.0061387
575.00	0.0064103
576.00	0.0067917
577.00	0.0073990
578.00	0.0075673
579.00	0.0079519
580.00	0.0087950
581.00	0.010897
582.00	0.012996
583.00	0.015815
584.00	0.020646
585.00	0.024851
586.00	0.026567
587.00	0.027196
588.00	0.026371
589.00	0.025148
590.00	0.024456
591.00	0.024677
592.00	0.025596
593.00	0.026523
594.00	0.026329
595.00	0.025928
596.00	0.025246
597.00	0.024080
598.00	0.022751
599.00	0.020426
600.00	0.018123
601.00	0.015384
602.00	0.013065
603.00	0.011293
604.00	0.010163
605.00	0.0091691
606.00	0.0085508
607.00	0.0078418
608.00	0.0074491
609.00	0.0069874
610.00	0.0068046
611.00	0.0063369
612.00	0.0059579
613.00	0.0058925
614.00	0.0056904
615.00	0.0055640
616.00	0.0053804
617.00	0.0051682
618.00	0.0048280
619.00	0.0046056
620.00	0.0044825
621.00	0.0042242
622.00	0.0042500
623.00	0.0040103
624.00	0.0041726
625.00	0.0043651
626.00	0.0047807
627.00	0.0058930
628.00	0.0070395
629.00	0.0087280
630.00	0.010642
631.00	0.012572
632.00	0.014500
633.00	0.016149
634.00	0.016910
635.00	0.017546
636.00	0.017973
637.00	0.019190
638.00	0.022473
639.00	0.028875
640.00	0.040583
641.00	0.056811
642.00	0.075250
643.00	0.090940
644.00	0.10043
645.00	0.10187
646.00	0.095388
647.00	0.082699
648.00	0.066646
649.00	0.051493
650.00	0.038192
651.00	0.027718
652.00	0.019738
653.00	0.014723
654.00	0.011126
655.00	0.0085121
656.00	0.0074370
657.00	0.0036596
658.00	0.0035232
659.00	0.0040184
660.00	0.0033703
661.00	0.0027875
662.00	0.0025462
663.00	0.0020365
664.00	0.0018250
665.00	0.0017605
666.00	0.0010244
667.00	0.0010147
668.00	0.00053122
669.00	0.0012387
670.00	0.00061476
671.00	0.00077134
672.00	0.0010990
673.00	0.00072493
674.00	0.00056189
675.00	0.00052113
676.00	0.00061193
677.00	0.00074148
678.00	0.00068377
679.00	0.00078022
680.00	0.00058893
681.00	0.00051790
682.00	0.00048844
683.00	0.00056593
684.00	0.00073986
685.00	0.00060951
686.00	0.00064301
687.00	0.00024146
688.00	0.00018819
689.00	0.00050176
690.00	0.00085004
691.00	0.00087707
692.00	0.00051387
693.00	0.00062162
694.00	0.00030603
695.00	0.00049732
696.00	0.00058812
697.00	0.00065955
698.00	0.00080605
699.00	0.00039280
700.00	0.00068740
