Wavelength (nm)	344 13 (FbC-A3,13Ar10)
300.00	0.21032
301.00	0.20779
302.00	0.20420
303.00	0.20041
304.00	0.19640
305.00	0.19241
306.00	0.18852
307.00	0.18532
308.00	0.18273
309.00	0.18058
310.00	0.17910
311.00	0.17822
312.00	0.17778
313.00	0.17772
314.00	0.17794
315.00	0.17851
316.00	0.17892
317.00	0.17961
318.00	0.18007
319.00	0.18083
320.00	0.18174
321.00	0.18259
322.00	0.18341
323.00	0.18474
324.00	0.18616
325.00	0.18741
326.00	0.18904
327.00	0.19072
328.00	0.19213
329.00	0.19364
330.00	0.19446
331.00	0.19521
332.00	0.19555
333.00	0.19552
334.00	0.19493
335.00	0.19404
336.00	0.19300
337.00	0.19209
338.00	0.19156
339.00	0.19123
340.00	0.19130
341.00	0.19191
342.00	0.19325
343.00	0.19487
344.00	0.19693
345.00	0.19982
346.00	0.20307
347.00	0.20627
348.00	0.21036
349.00	0.21447
350.00	0.21876
351.00	0.22363
352.00	0.22867
353.00	0.23363
354.00	0.23875
355.00	0.24384
356.00	0.24906
357.00	0.25402
358.00	0.25891
359.00	0.26434
360.00	0.26973
361.00	0.27542
362.00	0.28111
363.00	0.28708
364.00	0.29405
365.00	0.30130
366.00	0.30832
367.00	0.31552
368.00	0.32394
369.00	0.33298
370.00	0.34282
371.00	0.35286
372.00	0.36441
373.00	0.37723
374.00	0.39018
375.00	0.40442
376.00	0.41936
377.00	0.43355
378.00	0.44897
379.00	0.46431
380.00	0.47729
381.00	0.49049
382.00	0.50374
383.00	0.51422
384.00	0.52168
385.00	0.52639
386.00	0.52848
387.00	0.52915
388.00	0.52764
389.00	0.52393
390.00	0.51931
391.00	0.51454
392.00	0.50983
393.00	0.50634
394.00	0.50417
395.00	0.50461
396.00	0.50623
397.00	0.51022
398.00	0.51668
399.00	0.52390
400.00	0.53274
401.00	0.54542
402.00	0.55895
403.00	0.57356
404.00	0.59174
405.00	0.61095
406.00	0.63118
407.00	0.65244
408.00	0.67854
409.00	0.70118
410.00	0.72557
411.00	0.75017
412.00	0.77461
413.00	0.79601
414.00	0.81599
415.00	0.83617
416.00	0.85475
417.00	0.86968
418.00	0.88391
419.00	0.89474
420.00	0.90591
421.00	0.91641
422.00	0.92422
423.00	0.93096
424.00	0.93826
425.00	0.94634
426.00	0.95251
427.00	0.96340
428.00	0.97287
429.00	0.98278
430.00	0.99056
431.00	0.99647
432.00	1.0005
433.00	1.0000
434.00	0.99249
435.00	0.98081
436.00	0.96050
437.00	0.93455
438.00	0.89819
439.00	0.85476
440.00	0.80104
441.00	0.74792
442.00	0.68489
443.00	0.61982
444.00	0.55331
445.00	0.48638
446.00	0.42527
447.00	0.36750
448.00	0.31402
449.00	0.26798
450.00	0.22719
451.00	0.19144
452.00	0.16162
453.00	0.13631
454.00	0.11534
455.00	0.098705
456.00	0.085174
457.00	0.073773
458.00	0.065120
459.00	0.058599
460.00	0.052832
461.00	0.048415
462.00	0.045034
463.00	0.041943
464.00	0.039642
465.00	0.037480
466.00	0.036581
467.00	0.035400
468.00	0.034015
469.00	0.033462
470.00	0.033124
471.00	0.033119
472.00	0.033179
473.00	0.033022
474.00	0.033545
475.00	0.033572
476.00	0.034363
477.00	0.034782
478.00	0.035171
479.00	0.036141
480.00	0.036659
481.00	0.037554
482.00	0.037981
483.00	0.038444
484.00	0.040368
485.00	0.039659
486.00	0.040026
487.00	0.041736
488.00	0.042205
489.00	0.042893
490.00	0.043815
491.00	0.044787
492.00	0.044676
493.00	0.045844
494.00	0.046358
495.00	0.047483
496.00	0.047449
497.00	0.048342
498.00	0.049151
499.00	0.050153
500.00	0.051009
501.00	0.051989
502.00	0.053012
503.00	0.054406
504.00	0.056238
505.00	0.058146
506.00	0.059983
507.00	0.062484
508.00	0.064991
509.00	0.068208
510.00	0.071294
511.00	0.074859
512.00	0.079324
513.00	0.082280
514.00	0.086099
515.00	0.089434
516.00	0.092358
517.00	0.095282
518.00	0.097377
519.00	0.099099
520.00	0.10062
521.00	0.10159
522.00	0.10262
523.00	0.10305
524.00	0.10281
525.00	0.10211
526.00	0.10094
527.00	0.098769
528.00	0.095613
529.00	0.092149
530.00	0.088210
531.00	0.084638
532.00	0.080142
533.00	0.076269
534.00	0.071880
535.00	0.068325
536.00	0.065036
537.00	0.061877
538.00	0.059407
539.00	0.057368
540.00	0.056143
541.00	0.055376
542.00	0.055332
543.00	0.056136
544.00	0.057729
545.00	0.060197
546.00	0.063029
547.00	0.066885
548.00	0.071259
549.00	0.076912
550.00	0.082965
551.00	0.089777
552.00	0.096722
553.00	0.10376
554.00	0.11096
555.00	0.11706
556.00	0.12188
557.00	0.12581
558.00	0.12716
559.00	0.12649
560.00	0.12395
561.00	0.11968
562.00	0.11347
563.00	0.10660
564.00	0.099086
565.00	0.090881
566.00	0.083050
567.00	0.075775
568.00	0.068826
569.00	0.062808
570.00	0.057766
571.00	0.053124
572.00	0.048970
573.00	0.045210
574.00	0.042056
575.00	0.039276
576.00	0.036372
577.00	0.033814
578.00	0.031694
579.00	0.029629
580.00	0.027764
581.00	0.025803
582.00	0.024692
583.00	0.023302
584.00	0.021436
585.00	0.020332
586.00	0.019192
587.00	0.018144
588.00	0.017397
589.00	0.016902
590.00	0.016013
591.00	0.015627
592.00	0.015059
593.00	0.015016
594.00	0.014798
595.00	0.014435
596.00	0.014378
597.00	0.014602
598.00	0.014489
599.00	0.014704
600.00	0.014659
601.00	0.014980
602.00	0.015460
603.00	0.015761
604.00	0.016550
605.00	0.017053
606.00	0.017858
607.00	0.018729
608.00	0.019983
609.00	0.021245
610.00	0.022316
611.00	0.024250
612.00	0.025944
613.00	0.028096
614.00	0.030252
615.00	0.032652
616.00	0.035422
617.00	0.038227
618.00	0.040877
619.00	0.043744
620.00	0.046302
621.00	0.048894
622.00	0.050893
623.00	0.052528
624.00	0.054085
625.00	0.055174
626.00	0.056108
627.00	0.056534
628.00	0.056894
629.00	0.056399
630.00	0.055603
631.00	0.054151
632.00	0.053056
633.00	0.051550
634.00	0.049778
635.00	0.047834
636.00	0.046298
637.00	0.044855
638.00	0.043399
639.00	0.042534
640.00	0.041751
641.00	0.041872
642.00	0.041648
643.00	0.041727
644.00	0.041843
645.00	0.042136
646.00	0.042542
647.00	0.042991
648.00	0.044427
649.00	0.045240
650.00	0.046313
651.00	0.047365
652.00	0.048665
653.00	0.049957
654.00	0.054409
655.00	0.054770
656.00	0.057090
657.00	0.060289
658.00	0.063756
659.00	0.068456
660.00	0.073422
661.00	0.079726
662.00	0.086292
663.00	0.093996
664.00	0.10212
665.00	0.11123
666.00	0.12095
667.00	0.13115
668.00	0.14273
669.00	0.15522
670.00	0.17062
671.00	0.18680
672.00	0.20539
673.00	0.22774
674.00	0.25317
675.00	0.28250
676.00	0.31674
677.00	0.35440
678.00	0.39538
679.00	0.44078
680.00	0.48655
681.00	0.53146
682.00	0.57120
683.00	0.60526
684.00	0.62708
685.00	0.63650
686.00	0.63069
687.00	0.61105
688.00	0.57774
689.00	0.53256
690.00	0.48016
691.00	0.42453
692.00	0.36701
693.00	0.31390
694.00	0.26122
695.00	0.21590
696.00	0.17606
697.00	0.14388
698.00	0.11588
699.00	0.093274
700.00	0.075675
701.00	0.061120
702.00	0.050051
703.00	0.040821
704.00	0.033829
705.00	0.028267
706.00	0.023311
707.00	0.019767
708.00	0.017269
709.00	0.014410
710.00	0.012500
711.00	0.010990
712.00	0.0093018
713.00	0.0079370
714.00	0.0069444
715.00	0.0060750
716.00	0.0054847
717.00	0.0048806
718.00	0.0044598
719.00	0.0042950
720.00	0.0036959
721.00	0.0034348
722.00	0.0032311
723.00	0.0031297
724.00	0.0027677
725.00	0.0024895
726.00	0.0024885
727.00	0.0023737
728.00	0.0020955
729.00	0.0021663
730.00	0.0019969
731.00	0.0018612
732.00	0.0016196
733.00	0.0015751
734.00	0.0015483
735.00	0.0016830
736.00	0.0014714
737.00	0.0014918
738.00	0.0013177
739.00	0.0013830
740.00	0.0015974
741.00	0.0013738
742.00	0.0015867
743.00	0.0015886
744.00	0.0012960
745.00	0.00086869
746.00	0.0012140
747.00	0.0011701
748.00	0.0011543
749.00	0.00098535
750.00	0.00088998
