Wavelength (nm)	23, (Z)-Bos-DPxB, ZBOSDPXB
210.00	0.77156
211.00	0.83118
212.00	0.89080
213.00	0.92810
214.00	0.96540
215.00	0.98052
216.00	0.99565
217.00	0.99421
218.00	0.99279
219.00	0.97854
220.00	0.96429
221.00	0.94003
222.00	0.91577
223.00	0.88650
224.00	0.85723
225.00	0.82665
226.00	0.79607
227.00	0.76848
228.00	0.74088
229.00	0.71927
230.00	0.69767
231.00	0.68180
232.00	0.66594
233.00	0.65584
234.00	0.64573
235.00	0.64141
236.00	0.63709
237.00	0.63647
238.00	0.63585
239.00	0.63734
240.00	0.63884
241.00	0.63920
242.00	0.63956
243.00	0.63631
244.00	0.63306
245.00	0.62563
246.00	0.61820
247.00	0.60498
248.00	0.59175
249.00	0.57201
250.00	0.55226
251.00	0.52672
252.00	0.50119
253.00	0.47321
254.00	0.44523
255.00	0.41886
256.00	0.39248
257.00	0.37098
258.00	0.34948
259.00	0.33443
260.00	0.31938
261.00	0.30870
262.00	0.29802
263.00	0.29158
264.00	0.28513
265.00	0.28121
266.00	0.27729
267.00	0.27570
268.00	0.27410
269.00	0.27264
270.00	0.27117
271.00	0.27032
272.00	0.26947
273.00	0.26851
274.00	0.26756
275.00	0.26695
276.00	0.26634
277.00	0.26496
278.00	0.26359
279.00	0.26196
280.00	0.26033
281.00	0.25797
282.00	0.25560
283.00	0.25275
284.00	0.24990
285.00	0.24628
286.00	0.24267
287.00	0.23950
288.00	0.23632
289.00	0.23198
290.00	0.22764
291.00	0.22418
292.00	0.22072
293.00	0.21640
294.00	0.21207
295.00	0.20801
296.00	0.20395
297.00	0.19994
298.00	0.19592
299.00	0.19182
300.00	0.18771
301.00	0.18346
302.00	0.17921
303.00	0.17490
304.00	0.17059
305.00	0.16703
306.00	0.16346
307.00	0.15954
308.00	0.15561
309.00	0.15214
310.00	0.14866
311.00	0.14507
312.00	0.14149
313.00	0.13806
314.00	0.13464
315.00	0.13119
316.00	0.12774
317.00	0.12447
318.00	0.12120
319.00	0.11762
320.00	0.11405
321.00	0.11048
322.00	0.10691
323.00	0.10365
324.00	0.10040
325.00	0.097122
326.00	0.093844
327.00	0.090816
328.00	0.087787
329.00	0.084603
330.00	0.081418
331.00	0.079410
332.00	0.077402
333.00	0.075484
334.00	0.073565
335.00	0.071455
336.00	0.069345
337.00	0.068227
338.00	0.067109
339.00	0.066346
340.00	0.065583
341.00	0.065857
342.00	0.066132
343.00	0.067244
344.00	0.068356
345.00	0.069447
346.00	0.070539
347.00	0.072453
348.00	0.074367
349.00	0.076440
350.00	0.078512
351.00	0.081755
352.00	0.084998
353.00	0.088660
354.00	0.092323
355.00	0.096414
356.00	0.10050
357.00	0.10553
358.00	0.11057
359.00	0.11574
360.00	0.12092
361.00	0.12731
362.00	0.13370
363.00	0.14110
364.00	0.14850
365.00	0.15651
366.00	0.16451
367.00	0.17322
368.00	0.18193
369.00	0.19082
370.00	0.19970
371.00	0.20960
372.00	0.21951
373.00	0.23063
374.00	0.24176
375.00	0.25273
376.00	0.26370
377.00	0.27610
378.00	0.28850
379.00	0.30085
380.00	0.31320
381.00	0.32680
382.00	0.34039
383.00	0.35467
384.00	0.36895
385.00	0.38376
386.00	0.39857
387.00	0.41386
388.00	0.42916
389.00	0.44541
390.00	0.46166
391.00	0.47833
392.00	0.49501
393.00	0.51187
394.00	0.52874
395.00	0.54598
396.00	0.56323
397.00	0.58128
398.00	0.59932
399.00	0.61615
400.00	0.63299
401.00	0.65096
402.00	0.66892
403.00	0.68766
404.00	0.70639
405.00	0.72323
406.00	0.74007
407.00	0.75635
408.00	0.77264
409.00	0.78951
410.00	0.80638
411.00	0.82250
412.00	0.83862
413.00	0.85304
414.00	0.86746
415.00	0.88069
416.00	0.89391
417.00	0.90640
418.00	0.91888
419.00	0.93028
420.00	0.94167
421.00	0.95146
422.00	0.96126
423.00	0.96854
424.00	0.97583
425.00	0.98224
426.00	0.98865
427.00	0.99238
428.00	0.99611
429.00	0.99805
430.00	1.00000
431.00	0.99987
432.00	0.99974
433.00	0.99712
434.00	0.99450
435.00	0.98886
436.00	0.98323
437.00	0.97525
438.00	0.96727
439.00	0.95555
440.00	0.94384
441.00	0.93157
442.00	0.91930
443.00	0.90443
444.00	0.88956
445.00	0.87279
446.00	0.85603
447.00	0.83673
448.00	0.81743
449.00	0.79655
450.00	0.77567
451.00	0.75377
452.00	0.73188
453.00	0.70783
454.00	0.68378
455.00	0.65900
456.00	0.63421
457.00	0.60870
458.00	0.58320
459.00	0.56017
460.00	0.53714
461.00	0.51311
462.00	0.48907
463.00	0.46311
464.00	0.43715
465.00	0.41575
466.00	0.39434
467.00	0.37439
468.00	0.35444
469.00	0.33464
470.00	0.31484
471.00	0.29315
472.00	0.27146
473.00	0.25298
474.00	0.23449
475.00	0.21857
476.00	0.20265
477.00	0.18871
478.00	0.17477
479.00	0.16141
480.00	0.14805
481.00	0.13644
482.00	0.12483
483.00	0.10975
484.00	0.094668
485.00	0.087648
486.00	0.080628
487.00	0.076802
488.00	0.072975
489.00	0.067356
490.00	0.061738
491.00	0.056389
492.00	0.051041
493.00	0.045778
494.00	0.040515
495.00	0.036507
496.00	0.032499
497.00	0.029165
498.00	0.025831
499.00	0.023488
500.00	0.021146
501.00	0.019254
502.00	0.017363
503.00	0.015901
504.00	0.014440
505.00	0.013471
506.00	0.012503
507.00	0.011935
508.00	0.011368
509.00	0.010507
510.00	0.0096467
511.00	0.0091790
512.00	0.0087113
513.00	0.0086697
514.00	0.0086281
515.00	0.0082789
516.00	0.0079297
517.00	0.0080295
518.00	0.0081293
519.00	0.0078736
520.00	0.0076179
521.00	0.0079339
522.00	0.0082498
523.00	0.0080295
524.00	0.0078092
525.00	0.0077447
526.00	0.0076803
527.00	0.0074994
528.00	0.0073186
529.00	0.0074059
530.00	0.0074932
531.00	0.0073248
532.00	0.0071565
533.00	0.0066888
534.00	0.0062211
535.00	0.0063395
536.00	0.0064580
537.00	0.0063915
538.00	0.0063250
539.00	0.0063188
540.00	0.0063125
541.00	0.0062772
542.00	0.0062419
543.00	0.0063146
544.00	0.0063874
545.00	0.0061733
546.00	0.0059592
547.00	0.0062419
548.00	0.0065245
549.00	0.0066306
550.00	0.0067366
551.00	0.0066035
552.00	0.0064705
553.00	0.0064954
554.00	0.0065204
555.00	0.0066368
556.00	0.0067532
557.00	0.0069694
558.00	0.0071856
559.00	0.0070068
560.00	0.0068280
561.00	0.0069403
562.00	0.0070525
563.00	0.0070525
564.00	0.0070525
565.00	0.0066908
566.00	0.0063292
567.00	0.0050404
568.00	0.0037516
569.00	0.0025273
570.00	0.0021748
571.00	0.0013953
572.00	0.0020232
573.00	0.0020747
574.00	0.0019663
575.00	0.0019079
576.00	0.0035932
577.00	0.0017722
578.00	0.0019052
579.00	0.0018133
580.00	0.0017214
581.00	0.0018499
582.00	0.0019783
583.00	0.0019719
584.00	0.0019655
585.00	0.0015771
586.00	0.0020607
587.00	0.0018631
588.00	0.0018642
589.00	0.0026333
590.00	0.0034024
591.00	0.0028058
592.00	0.0022093
593.00	0.0020575
594.00	0.0019058
595.00	0.0022550
596.00	0.0026042
597.00	0.0025377
598.00	0.0024712
599.00	0.0025231
600.00	0.0025751
