Wavelength (nm)	PCPB Sci 2020_668, Me-RCC abs [Z]
200.00	0.99235
201.00	0.98264
202.00	0.97294
203.00	0.95985
204.00	0.94268
205.00	0.93577
206.00	0.92886
207.00	0.92719
208.00	0.92998
209.00	0.93278
210.00	0.93602
211.00	0.93926
212.00	0.93889
213.00	0.93445
214.00	0.92388
215.00	0.90334
216.00	0.88280
217.00	0.85642
218.00	0.82126
219.00	0.78609
220.00	0.75093
221.00	0.72203
222.00	0.69621
223.00	0.67038
224.00	0.64884
225.00	0.63399
226.00	0.61914
227.00	0.60429
228.00	0.59906
229.00	0.59595
230.00	0.59283
231.00	0.59204
232.00	0.59169
233.00	0.59134
234.00	0.59007
235.00	0.58843
236.00	0.58678
237.00	0.58143
238.00	0.57465
239.00	0.56786
240.00	0.55835
241.00	0.54787
242.00	0.53740
243.00	0.52684
244.00	0.51624
245.00	0.50563
246.00	0.49922
247.00	0.49362
248.00	0.49109
249.00	0.48856
250.00	0.48968
251.00	0.49195
252.00	0.49422
253.00	0.49825
254.00	0.50331
255.00	0.50838
256.00	0.51481
257.00	0.52262
258.00	0.53042
259.00	0.53836
260.00	0.54813
261.00	0.55791
262.00	0.56768
263.00	0.57650
264.00	0.58434
265.00	0.59157
266.00	0.59705
267.00	0.60254
268.00	0.60618
269.00	0.60842
270.00	0.61066
271.00	0.60955
272.00	0.60803
273.00	0.60650
274.00	0.60458
275.00	0.60179
276.00	0.59899
277.00	0.59579
278.00	0.59072
279.00	0.58566
280.00	0.58057
281.00	0.57496
282.00	0.56934
283.00	0.56546
284.00	0.56317
285.00	0.56088
286.00	0.55859
287.00	0.56174
288.00	0.56525
289.00	0.56875
290.00	0.57646
291.00	0.58819
292.00	0.59993
293.00	0.61166
294.00	0.62370
295.00	0.64296
296.00	0.66223
297.00	0.68149
298.00	0.70075
299.00	0.72001
300.00	0.74173
301.00	0.76399
302.00	0.78626
303.00	0.80852
304.00	0.83078
305.00	0.85112
306.00	0.87127
307.00	0.89142
308.00	0.91157
309.00	0.92988
310.00	0.94388
311.00	0.95787
312.00	0.97052
313.00	0.98151
314.00	0.99251
315.00	0.99620
316.00	0.99810
317.00	1.0000
318.00	0.99754
319.00	0.99509
320.00	0.98835
321.00	0.97810
322.00	0.96609
323.00	0.95208
324.00	0.93807
325.00	0.92406
326.00	0.90924
327.00	0.88944
328.00	0.86964
329.00	0.84984
330.00	0.83004
331.00	0.80714
332.00	0.78424
333.00	0.76135
334.00	0.73845
335.00	0.71796
336.00	0.69808
337.00	0.67819
338.00	0.65831
339.00	0.63940
340.00	0.62254
341.00	0.60568
342.00	0.58883
343.00	0.57294
344.00	0.55931
345.00	0.54568
346.00	0.53206
347.00	0.51877
348.00	0.50779
349.00	0.49681
350.00	0.48583
351.00	0.47485
352.00	0.46559
353.00	0.45676
354.00	0.44794
355.00	0.43911
356.00	0.43029
357.00	0.42224
358.00	0.41610
359.00	0.40996
360.00	0.40383
361.00	0.39769
362.00	0.39155
363.00	0.38514
364.00	0.37865
365.00	0.37216
366.00	0.36567
367.00	0.35918
368.00	0.35269
369.00	0.34639
370.00	0.34009
371.00	0.33380
372.00	0.32750
373.00	0.32121
374.00	0.31491
375.00	0.30862
376.00	0.30236
377.00	0.29666
378.00	0.29096
379.00	0.28526
380.00	0.27956
381.00	0.27387
382.00	0.26817
383.00	0.26251
384.00	0.25749
385.00	0.25247
386.00	0.24745
387.00	0.24243
388.00	0.23741
389.00	0.23240
390.00	0.22769
391.00	0.22424
392.00	0.22079
393.00	0.21734
394.00	0.21389
395.00	0.21063
396.00	0.20860
397.00	0.20657
398.00	0.20455
399.00	0.20252
400.00	0.20049
401.00	0.19885
402.00	0.19762
403.00	0.19640
404.00	0.19518
405.00	0.19396
406.00	0.19291
407.00	0.19338
408.00	0.19385
409.00	0.19432
410.00	0.19479
411.00	0.19526
412.00	0.19611
413.00	0.19791
414.00	0.19971
415.00	0.20151
416.00	0.20331
417.00	0.20511
418.00	0.20690
419.00	0.20870
420.00	0.21089
421.00	0.21324
422.00	0.21560
423.00	0.21795
424.00	0.22031
425.00	0.22267
426.00	0.22472
427.00	0.22636
428.00	0.22801
429.00	0.22965
430.00	0.23129
431.00	0.23294
432.00	0.23458
433.00	0.23634
434.00	0.23894
435.00	0.24153
436.00	0.24412
437.00	0.24672
438.00	0.24931
439.00	0.25192
440.00	0.25576
441.00	0.25960
442.00	0.26344
443.00	0.26728
444.00	0.27112
445.00	0.27496
446.00	0.27900
447.00	0.28310
448.00	0.28721
449.00	0.29131
450.00	0.29541
451.00	0.29952
452.00	0.30335
453.00	0.30690
454.00	0.31044
455.00	0.31399
456.00	0.31754
457.00	0.31926
458.00	0.32070
459.00	0.32215
460.00	0.32359
461.00	0.32504
462.00	0.32571
463.00	0.32634
464.00	0.32696
465.00	0.32759
466.00	0.32822
467.00	0.32945
468.00	0.33089
469.00	0.33234
470.00	0.33378
471.00	0.33523
472.00	0.33746
473.00	0.33987
474.00	0.34228
475.00	0.34469
476.00	0.34710
477.00	0.35019
478.00	0.35374
479.00	0.35729
480.00	0.36084
481.00	0.36440
482.00	0.36819
483.00	0.37203
484.00	0.37587
485.00	0.37866
486.00	0.38100
487.00	0.38335
488.00	0.38569
489.00	0.38665
490.00	0.38756
491.00	0.38848
492.00	0.38863
493.00	0.38756
494.00	0.38650
495.00	0.38544
496.00	0.38437
497.00	0.38189
498.00	0.37898
499.00	0.37607
500.00	0.37304
501.00	0.36953
502.00	0.36602
503.00	0.36250
504.00	0.35922
505.00	0.35608
506.00	0.35293
507.00	0.34979
508.00	0.34706
509.00	0.34484
510.00	0.34261
511.00	0.34039
512.00	0.33866
513.00	0.33827
514.00	0.33787
515.00	0.33747
516.00	0.33707
517.00	0.33668
518.00	0.33719
519.00	0.33799
520.00	0.33880
521.00	0.33960
522.00	0.34040
523.00	0.34106
524.00	0.34171
525.00	0.34236
526.00	0.34302
527.00	0.34314
528.00	0.34314
529.00	0.34314
530.00	0.34314
531.00	0.34147
532.00	0.33970
533.00	0.33792
534.00	0.33615
535.00	0.33336
536.00	0.32844
537.00	0.32351
538.00	0.31858
539.00	0.31318
540.00	0.30718
541.00	0.30118
542.00	0.29519
543.00	0.28919
544.00	0.28288
545.00	0.27629
546.00	0.26971
547.00	0.26312
548.00	0.25653
549.00	0.25055
550.00	0.24528
551.00	0.24001
552.00	0.23474
553.00	0.22947
554.00	0.22421
555.00	0.21917
556.00	0.21458
557.00	0.21000
558.00	0.20541
559.00	0.20083
560.00	0.19624
561.00	0.19165
562.00	0.18763
563.00	0.18599
564.00	0.18436
565.00	0.18273
566.00	0.18109
567.00	0.17946
568.00	0.17782
569.00	0.17619
570.00	0.17455
571.00	0.17292
572.00	0.17147
573.00	0.17020
574.00	0.16893
575.00	0.16766
576.00	0.16639
577.00	0.16512
578.00	0.16385
579.00	0.16258
580.00	0.16077
581.00	0.15879
582.00	0.15681
583.00	0.15483
584.00	0.15285
585.00	0.15087
586.00	0.14889
587.00	0.14645
588.00	0.14293
589.00	0.13942
590.00	0.13591
591.00	0.13239
592.00	0.12888
593.00	0.12537
594.00	0.12186
595.00	0.11752
596.00	0.11317
597.00	0.10883
598.00	0.10448
599.00	0.10014
600.00	0.095885
601.00	0.091813
602.00	0.087741
603.00	0.083669
604.00	0.079597
605.00	0.075525
606.00	0.071452
607.00	0.067763
608.00	0.064308
609.00	0.060853
610.00	0.057398
611.00	0.053943
612.00	0.050488
613.00	0.047033
614.00	0.043578
615.00	0.041062
616.00	0.038686
617.00	0.036310
618.00	0.033934
619.00	0.031558
620.00	0.029182
621.00	0.026806
622.00	0.024430
623.00	0.022962
624.00	0.021695
625.00	0.020427
626.00	0.019159
627.00	0.017891
628.00	0.016624
629.00	0.015356
630.00	0.014088
631.00	0.013121
632.00	0.012331
633.00	0.011542
634.00	0.010752
635.00	0.0099618
636.00	0.0091720
637.00	0.0083821
638.00	0.0076022
639.00	0.0073146
640.00	0.0070270
641.00	0.0067394
642.00	0.0064518
643.00	0.0061642
644.00	0.0058765
645.00	0.0055889
646.00	0.0053230
647.00	0.0050871
648.00	0.0048512
649.00	0.0046153
650.00	0.0043795
651.00	0.0041436
652.00	0.0039239
653.00	0.0037896
654.00	0.0036554
655.00	0.0035211
656.00	0.0034477
657.00	0.0033743
658.00	0.0033009
659.00	0.0032275
660.00	0.0031541
661.00	0.0031108
662.00	0.0030675
663.00	0.0030242
664.00	0.0029809
665.00	0.0029376
666.00	0.0028531
667.00	0.0027686
668.00	0.0026841
669.00	0.0025996
670.00	0.0025151
671.00	0.0025151
672.00	0.0025151
673.00	0.0025151
674.00	0.0025151
675.00	0.0025151
676.00	0.0025151
677.00	0.0025151
678.00	0.0025151
679.00	0.0025151
680.00	0.0025151
681.00	0.0025151
682.00	0.0025151
683.00	0.0025151
684.00	0.0025151
685.00	0.0025151
686.00	0.0025151
687.00	0.0025151
688.00	0.0025151
689.00	0.0025151
690.00	0.0025151
691.00	0.0025151
692.00	0.0025151
693.00	0.0025151
694.00	0.0025151
695.00	0.0025151
696.00	0.0025151
697.00	0.0025151
698.00	0.0025151
699.00	0.0025151
700.00	0.0025151
