Wavelength (nm)	285 FbOP-A3M10 (SE330)
300.00	0.27414
301.00	0.26204
302.00	0.25054
303.00	0.23970
304.00	0.23119
305.00	0.22417
306.00	0.21979
307.00	0.21688
308.00	0.21514
309.00	0.21512
310.00	0.21644
311.00	0.21875
312.00	0.22167
313.00	0.22473
314.00	0.22798
315.00	0.23155
316.00	0.23509
317.00	0.23913
318.00	0.24334
319.00	0.24806
320.00	0.25370
321.00	0.25999
322.00	0.26701
323.00	0.27461
324.00	0.28251
325.00	0.28990
326.00	0.29692
327.00	0.30241
328.00	0.30573
329.00	0.30657
330.00	0.30437
331.00	0.29946
332.00	0.29150
333.00	0.28152
334.00	0.27096
335.00	0.26004
336.00	0.25030
337.00	0.24203
338.00	0.23564
339.00	0.23168
340.00	0.22930
341.00	0.22861
342.00	0.22895
343.00	0.22981
344.00	0.23120
345.00	0.23267
346.00	0.23458
347.00	0.23658
348.00	0.23856
349.00	0.24063
350.00	0.24281
351.00	0.24478
352.00	0.24697
353.00	0.24941
354.00	0.25191
355.00	0.25479
356.00	0.25840
357.00	0.26279
358.00	0.26749
359.00	0.27309
360.00	0.27870
361.00	0.28480
362.00	0.29182
363.00	0.29921
364.00	0.30590
365.00	0.31324
366.00	0.32062
367.00	0.32714
368.00	0.33411
369.00	0.34114
370.00	0.34797
371.00	0.35632
372.00	0.36566
373.00	0.37565
374.00	0.38762
375.00	0.40122
376.00	0.41654
377.00	0.43480
378.00	0.45466
379.00	0.47555
380.00	0.49771
381.00	0.52145
382.00	0.54685
383.00	0.57258
384.00	0.59715
385.00	0.62055
386.00	0.64027
387.00	0.65635
388.00	0.66658
389.00	0.66822
390.00	0.66377
391.00	0.65314
392.00	0.63802
393.00	0.62087
394.00	0.60237
395.00	0.58517
396.00	0.57125
397.00	0.56078
398.00	0.55388
399.00	0.55123
400.00	0.55124
401.00	0.55427
402.00	0.55873
403.00	0.56416
404.00	0.56994
405.00	0.57577
406.00	0.58161
407.00	0.58735
408.00	0.59394
409.00	0.60135
410.00	0.60982
411.00	0.62075
412.00	0.63448
413.00	0.65094
414.00	0.67013
415.00	0.69207
416.00	0.71811
417.00	0.74553
418.00	0.77523
419.00	0.80563
420.00	0.83731
421.00	0.86874
422.00	0.89625
423.00	0.92162
424.00	0.94248
425.00	0.95759
426.00	0.96724
427.00	0.97109
428.00	0.96906
429.00	0.96202
430.00	0.95067
431.00	0.93893
432.00	0.92615
433.00	0.91278
434.00	0.90293
435.00	0.89481
436.00	0.89155
437.00	0.89206
438.00	0.89759
439.00	0.90512
440.00	0.91639
441.00	0.93265
442.00	0.94906
443.00	0.96648
444.00	0.98229
445.00	0.99342
446.00	1.00000
447.00	0.99847
448.00	0.98698
449.00	0.96386
450.00	0.93046
451.00	0.88561
452.00	0.82969
453.00	0.76507
454.00	0.69111
455.00	0.61390
456.00	0.53815
457.00	0.46259
458.00	0.39265
459.00	0.32980
460.00	0.27373
461.00	0.22715
462.00	0.18771
463.00	0.15443
464.00	0.12787
465.00	0.10758
466.00	0.092182
467.00	0.079980
468.00	0.070224
469.00	0.063121
470.00	0.057397
471.00	0.053042
472.00	0.049869
473.00	0.047534
474.00	0.045832
475.00	0.044523
476.00	0.043444
477.00	0.042927
478.00	0.042675
479.00	0.042732
480.00	0.042795
481.00	0.043186
482.00	0.043501
483.00	0.044113
484.00	0.044908
485.00	0.045445
486.00	0.046039
487.00	0.046993
488.00	0.048010
489.00	0.048650
490.00	0.049477
491.00	0.050205
492.00	0.051000
493.00	0.051810
494.00	0.052264
495.00	0.052821
496.00	0.053407
497.00	0.053571
498.00	0.053668
499.00	0.053553
500.00	0.053315
501.00	0.053105
502.00	0.052562
503.00	0.051935
504.00	0.051386
505.00	0.050775
506.00	0.050300
507.00	0.049850
508.00	0.049754
509.00	0.049646
510.00	0.050305
511.00	0.050983
512.00	0.052447
513.00	0.054311
514.00	0.056698
515.00	0.059629
516.00	0.063425
517.00	0.067736
518.00	0.072572
519.00	0.077520
520.00	0.082961
521.00	0.088429
522.00	0.094112
523.00	0.099461
524.00	0.10487
525.00	0.11027
526.00	0.11553
527.00	0.12094
528.00	0.12609
529.00	0.13105
530.00	0.13584
531.00	0.13996
532.00	0.14318
533.00	0.14538
534.00	0.14622
535.00	0.14557
536.00	0.14354
537.00	0.13995
538.00	0.13500
539.00	0.12891
540.00	0.12213
541.00	0.11452
542.00	0.10700
543.00	0.099447
544.00	0.092630
545.00	0.086562
546.00	0.081281
547.00	0.077243
548.00	0.074330
549.00	0.072860
550.00	0.072490
551.00	0.073552
552.00	0.076310
553.00	0.080130
554.00	0.085505
555.00	0.092681
556.00	0.10133
557.00	0.11167
558.00	0.12347
559.00	0.13690
560.00	0.15070
561.00	0.16454
562.00	0.17728
563.00	0.18831
564.00	0.19685
565.00	0.20252
566.00	0.20495
567.00	0.20423
568.00	0.20067
569.00	0.19443
570.00	0.18657
571.00	0.17699
572.00	0.16622
573.00	0.15468
574.00	0.14289
575.00	0.13152
576.00	0.12008
577.00	0.10828
578.00	0.098304
579.00	0.088347
580.00	0.078817
581.00	0.070007
582.00	0.062998
583.00	0.056541
584.00	0.050101
585.00	0.044922
586.00	0.040816
587.00	0.037145
588.00	0.034108
589.00	0.031746
590.00	0.029609
591.00	0.027864
592.00	0.026405
593.00	0.025409
594.00	0.024428
595.00	0.023608
596.00	0.023088
597.00	0.022617
598.00	0.022425
599.00	0.022397
600.00	0.022646
601.00	0.023122
602.00	0.023884
603.00	0.024671
604.00	0.025821
605.00	0.027218
606.00	0.028867
607.00	0.030894
608.00	0.033255
609.00	0.036282
610.00	0.039568
611.00	0.043488
612.00	0.048010
613.00	0.053388
614.00	0.058816
615.00	0.064457
616.00	0.070169
617.00	0.075490
618.00	0.080137
619.00	0.084090
620.00	0.087162
621.00	0.089482
622.00	0.091272
623.00	0.092399
624.00	0.092536
625.00	0.092542
626.00	0.091954
627.00	0.090631
628.00	0.088624
629.00	0.086221
630.00	0.083136
631.00	0.079683
632.00	0.076052
633.00	0.072415
634.00	0.068845
635.00	0.065480
636.00	0.062676
637.00	0.060158
638.00	0.058328
639.00	0.057124
640.00	0.056614
641.00	0.056528
642.00	0.057015
643.00	0.058080
644.00	0.059146
645.00	0.060065
646.00	0.060858
647.00	0.061584
648.00	0.061764
649.00	0.061591
650.00	0.060896
651.00	0.059834
652.00	0.058363
653.00	0.057088
654.00	0.055925
655.00	0.055237
656.00	0.055490
657.00	0.057340
658.00	0.058476
659.00	0.061106
660.00	0.065971
661.00	0.072512
662.00	0.080646
663.00	0.090538
664.00	0.10204
665.00	0.11474
666.00	0.12859
667.00	0.14350
668.00	0.15945
669.00	0.17717
670.00	0.19586
671.00	0.21855
672.00	0.24505
673.00	0.27780
674.00	0.31741
675.00	0.36541
676.00	0.42267
677.00	0.48702
678.00	0.55741
679.00	0.62736
680.00	0.69260
681.00	0.74697
682.00	0.78312
683.00	0.79689
684.00	0.78602
685.00	0.75057
686.00	0.69566
687.00	0.62434
688.00	0.54509
689.00	0.46436
690.00	0.38616
691.00	0.31578
692.00	0.25400
693.00	0.20215
694.00	0.16047
695.00	0.12676
696.00	0.10058
697.00	0.080490
698.00	0.065120
699.00	0.052887
700.00	0.043496
701.00	0.036071
702.00	0.030023
703.00	0.025210
704.00	0.021249
705.00	0.017915
706.00	0.015337
707.00	0.013174
708.00	0.011449
709.00	0.010120
710.00	0.0089967
711.00	0.0082431
712.00	0.0075341
713.00	0.0071212
714.00	0.0067694
715.00	0.0064733
716.00	0.0063687
717.00	0.0060025
718.00	0.0059313
719.00	0.0057721
720.00	0.0057254
721.00	0.0055662
722.00	0.0053781
723.00	0.0051877
724.00	0.0049996
725.00	0.0049340
726.00	0.0048950
727.00	0.0047069
728.00	0.0046201
729.00	0.0044731
730.00	0.0043785
731.00	0.0042505
732.00	0.0040257
733.00	0.0039155
734.00	0.0037385
735.00	0.0037007
736.00	0.0034502
737.00	0.0033000
738.00	0.0031998
739.00	0.0029749
740.00	0.0028124
741.00	0.0026421
742.00	0.0025375
743.00	0.0023015
744.00	0.0020756
745.00	0.0019108
746.00	0.0018285
747.00	0.0015346
748.00	0.0014311
749.00	0.0013076
750.00	0.0012731
