Wavelength (nm)	179 Oxo1-Br15,20

300.00	0.081195
301.00	0.081141
302.00	0.081113
303.00	0.081259
304.00	0.081234
305.00	0.080601
306.00	0.080228
307.00	0.079558
308.00	0.079039
309.00	0.078012
310.00	0.077366
311.00	0.076463
312.00	0.075410
313.00	0.074552
314.00	0.073541
315.00	0.072562
316.00	0.071802
317.00	0.070843
318.00	0.070273
319.00	0.069325
320.00	0.068585
321.00	0.068155
322.00	0.067464
323.00	0.066969
324.00	0.066541
325.00	0.066040
326.00	0.065942
327.00	0.065760
328.00	0.065522
329.00	0.065354
330.00	0.065343
331.00	0.065371
332.00	0.065417
333.00	0.065754
334.00	0.066120
335.00	0.066580
336.00	0.067118
337.00	0.067717
338.00	0.068343
339.00	0.069170
340.00	0.069782
341.00	0.070241
342.00	0.070749
343.00	0.071050
344.00	0.071252
345.00	0.071378
346.00	0.071301
347.00	0.071287
348.00	0.071185
349.00	0.071249
350.00	0.071496
351.00	0.071515
352.00	0.071781
353.00	0.072165
354.00	0.072570
355.00	0.073014
356.00	0.073393
357.00	0.073971
358.00	0.074311
359.00	0.076341
360.00	0.079314
361.00	0.082595
362.00	0.085375
363.00	0.088083
364.00	0.088370
365.00	0.085794
366.00	0.083117
367.00	0.081116
368.00	0.080696
369.00	0.082828
370.00	0.086541
371.00	0.090577
372.00	0.094060
373.00	0.096427
374.00	0.098433
375.00	0.10054
376.00	0.10268
377.00	0.10518
378.00	0.10813
379.00	0.11152
380.00	0.11421
381.00	0.11777
382.00	0.12202
383.00	0.12685
384.00	0.13179
385.00	0.13682
386.00	0.14237
387.00	0.14865
388.00	0.15562
389.00	0.16165
390.00	0.16838
391.00	0.17628
392.00	0.18465
393.00	0.19222
394.00	0.19921
395.00	0.20749
396.00	0.21716
397.00	0.22850
398.00	0.24091
399.00	0.25250
400.00	0.26453
401.00	0.27924
402.00	0.29442
403.00	0.30991
404.00	0.32632
405.00	0.34294
406.00	0.35980
407.00	0.37817
408.00	0.40151
409.00	0.42889
410.00	0.45708
411.00	0.49089
412.00	0.53044
413.00	0.57274
414.00	0.61778
415.00	0.66814
416.00	0.72356
417.00	0.78472
418.00	0.84499
419.00	0.90316
420.00	0.95307
421.00	0.98775
422.00	1.00000
423.00	0.99109
424.00	0.96707
425.00	0.93181
426.00	0.89265
427.00	0.85561
428.00	0.82552
429.00	0.80260
430.00	0.78815
431.00	0.77813
432.00	0.76988
433.00	0.76486
434.00	0.75680
435.00	0.73848
436.00	0.70966
437.00	0.66908
438.00	0.61492
439.00	0.55204
440.00	0.48277
441.00	0.41111
442.00	0.34618
443.00	0.28607
444.00	0.23325
445.00	0.18925
446.00	0.15197
447.00	0.12228
448.00	0.098975
449.00	0.080507
450.00	0.066089
451.00	0.054899
452.00	0.046344
453.00	0.039472
454.00	0.034431
455.00	0.030776
456.00	0.027609
457.00	0.025085
458.00	0.023352
459.00	0.021693
460.00	0.020020
461.00	0.019102
462.00	0.018214
463.00	0.018044
464.00	0.017866
465.00	0.017337
466.00	0.016745
467.00	0.015760
468.00	0.016081
469.00	0.015787
470.00	0.015687
471.00	0.016091
472.00	0.016177
473.00	0.016385
474.00	0.016215
475.00	0.016300
476.00	0.016213
477.00	0.016002
478.00	0.016411
479.00	0.016446
480.00	0.017013
481.00	0.016930
482.00	0.017089
483.00	0.017171
484.00	0.017078
485.00	0.017803
486.00	0.018557
487.00	0.018669
488.00	0.018793
489.00	0.019397
490.00	0.020596
491.00	0.021174
492.00	0.021970
493.00	0.022691
494.00	0.023148
495.00	0.023453
496.00	0.024288
497.00	0.024384
498.00	0.024649
499.00	0.025574
500.00	0.025683
501.00	0.026262
502.00	0.027032
503.00	0.027461
504.00	0.027679
505.00	0.028616
506.00	0.029191
507.00	0.029975
508.00	0.030871
509.00	0.031702
510.00	0.032583
511.00	0.033415
512.00	0.034314
513.00	0.035150
514.00	0.035923
515.00	0.036713
516.00	0.037615
517.00	0.038604
518.00	0.039531
519.00	0.040730
520.00	0.041564
521.00	0.042882
522.00	0.044281
523.00	0.045984
524.00	0.047583
525.00	0.048822
526.00	0.050498
527.00	0.051956
528.00	0.053129
529.00	0.054108
530.00	0.054582
531.00	0.055029
532.00	0.055636
533.00	0.056263
534.00	0.056244
535.00	0.056041
536.00	0.055774
537.00	0.055383
538.00	0.054623
539.00	0.053194
540.00	0.051405
541.00	0.049333
542.00	0.046913
543.00	0.044389
544.00	0.042088
545.00	0.039734
546.00	0.037937
547.00	0.036783
548.00	0.036061
549.00	0.035151
550.00	0.035090
551.00	0.035655
552.00	0.036494
553.00	0.037919
554.00	0.039084
555.00	0.040989
556.00	0.042907
557.00	0.044377
558.00	0.046373
559.00	0.048074
560.00	0.050425
561.00	0.052776
562.00	0.055452
563.00	0.058353
564.00	0.061750
565.00	0.064551
566.00	0.066644
567.00	0.068273
568.00	0.068257
569.00	0.067406
570.00	0.065277
571.00	0.061845
572.00	0.057739
573.00	0.053345
574.00	0.049337
575.00	0.044049
576.00	0.039172
577.00	0.035227
578.00	0.031360
579.00	0.026874
580.00	0.024363
581.00	0.022109
582.00	0.019919
583.00	0.016264
584.00	0.015978
585.00	0.016353
586.00	0.014618
587.00	0.014505
588.00	0.014993
589.00	0.014827
590.00	0.016032
591.00	0.016954
592.00	0.018327
593.00	0.020064
594.00	0.020494
595.00	0.022588
596.00	0.025030
597.00	0.027955
598.00	0.030996
599.00	0.033157
600.00	0.034301
601.00	0.035236
602.00	0.036018
603.00	0.037293
604.00	0.037673
605.00	0.037640
606.00	0.038005
607.00	0.037189
608.00	0.036514
609.00	0.035191
610.00	0.034137
611.00	0.031837
612.00	0.029735
613.00	0.027133
614.00	0.024637
615.00	0.022320
616.00	0.020460
617.00	0.018766
618.00	0.017387
619.00	0.016036
620.00	0.015030
621.00	0.013254
622.00	0.012227
623.00	0.011349
624.00	0.010826
625.00	0.010076
626.00	0.0096288
627.00	0.0091352
628.00	0.0086517
629.00	0.0081152
630.00	0.0073017
631.00	0.0064631
632.00	0.0060488
633.00	0.0058309
634.00	0.0060248
635.00	0.0063711
636.00	0.0067892
637.00	0.0071204
638.00	0.0074302
639.00	0.0078999
640.00	0.0082084
641.00	0.0087688
642.00	0.0096263
643.00	0.010338
644.00	0.011584
645.00	0.012957
646.00	0.014691
647.00	0.016716
648.00	0.018971
649.00	0.020775
650.00	0.022197
651.00	0.023220
652.00	0.024540
653.00	0.026111
654.00	0.028204
655.00	0.032527
656.00	0.036843
657.00	0.038756
658.00	0.039970
659.00	0.039506
660.00	0.037769
661.00	0.034970
662.00	0.031272
663.00	0.027440
664.00	0.023476
665.00	0.020015
666.00	0.016863
667.00	0.014020
668.00	0.011710
669.00	0.0097888
670.00	0.0082147
671.00	0.0069630
672.00	0.0058674
673.00	0.0049759
674.00	0.0043122
675.00	0.0036851
676.00	0.0032054
677.00	0.0028767
678.00	0.0025997
679.00	0.0023239
680.00	0.0021577
681.00	0.0020557
682.00	0.0019650
683.00	0.0018252
684.00	0.0017975
685.00	0.0017774
686.00	0.0016502
687.00	0.0015708
688.00	0.0016653
689.00	0.0014676
690.00	0.0015935
691.00	0.0015759
692.00	0.0015394
693.00	0.0015079
694.00	0.0014046
695.00	0.0015217
696.00	0.0014688
697.00	0.0013807
698.00	0.0013631
699.00	0.0012749
700.00	0.0012535
