Wavelength (nm)	ZnC-T5M10Es15P20 (SE416)
300.00	0.058308
301.00	0.057859
302.00	0.057324
303.00	0.056822
304.00	0.056514
305.00	0.056193
306.00	0.056135
307.00	0.056138
308.00	0.056050
309.00	0.056026
310.00	0.055895
311.00	0.055672
312.00	0.055384
313.00	0.054962
314.00	0.054470
315.00	0.053986
316.00	0.053490
317.00	0.052903
318.00	0.052412
319.00	0.051860
320.00	0.051353
321.00	0.050803
322.00	0.050439
323.00	0.049829
324.00	0.049401
325.00	0.049160
326.00	0.048670
327.00	0.048468
328.00	0.048053
329.00	0.047902
330.00	0.047861
331.00	0.047739
332.00	0.047724
333.00	0.047703
334.00	0.047689
335.00	0.047730
336.00	0.047671
337.00	0.047774
338.00	0.047831
339.00	0.047836
340.00	0.047849
341.00	0.047826
342.00	0.048031
343.00	0.048318
344.00	0.048592
345.00	0.048965
346.00	0.049427
347.00	0.049927
348.00	0.050556
349.00	0.051259
350.00	0.052035
351.00	0.052828
352.00	0.053778
353.00	0.054628
354.00	0.055479
355.00	0.056558
356.00	0.057588
357.00	0.058510
358.00	0.059739
359.00	0.060980
360.00	0.061917
361.00	0.062783
362.00	0.063494
363.00	0.064140
364.00	0.064681
365.00	0.064963
366.00	0.065323
367.00	0.065414
368.00	0.065507
369.00	0.065653
370.00	0.065498
371.00	0.065273
372.00	0.064979
373.00	0.064812
374.00	0.064586
375.00	0.064545
376.00	0.064482
377.00	0.064363
378.00	0.064377
379.00	0.064469
380.00	0.064620
381.00	0.065137
382.00	0.065945
383.00	0.066922
384.00	0.068504
385.00	0.071075
386.00	0.074521
387.00	0.078724
388.00	0.084514
389.00	0.091581
390.00	0.10020
391.00	0.11019
392.00	0.12121
393.00	0.13298
394.00	0.14483
395.00	0.15627
396.00	0.16712
397.00	0.17630
398.00	0.18285
399.00	0.18727
400.00	0.18859
401.00	0.18763
402.00	0.18491
403.00	0.18156
404.00	0.17911
405.00	0.17873
406.00	0.18230
407.00	0.19062
408.00	0.20592
409.00	0.22771
410.00	0.25877
411.00	0.29964
412.00	0.35399
413.00	0.42011
414.00	0.49792
415.00	0.59299
416.00	0.69531
417.00	0.80028
418.00	0.89477
419.00	0.96487
420.00	1.0000
421.00	0.99339
422.00	0.94641
423.00	0.86517
424.00	0.76454
425.00	0.65374
426.00	0.54576
427.00	0.44251
428.00	0.36064
429.00	0.28612
430.00	0.22740
431.00	0.18300
432.00	0.14662
433.00	0.11555
434.00	0.093121
435.00	0.077451
436.00	0.064903
437.00	0.055816
438.00	0.049080
439.00	0.044421
440.00	0.041188
441.00	0.038788
442.00	0.037473
443.00	0.036835
444.00	0.036324
445.00	0.036327
446.00	0.036433
447.00	0.036897
448.00	0.037202
449.00	0.037911
450.00	0.038577
451.00	0.039249
452.00	0.040049
453.00	0.040760
454.00	0.041526
455.00	0.042353
456.00	0.043070
457.00	0.044120
458.00	0.044824
459.00	0.045469
460.00	0.046325
461.00	0.047112
462.00	0.047567
463.00	0.048126
464.00	0.048736
465.00	0.049430
466.00	0.050031
467.00	0.050701
468.00	0.051041
469.00	0.051410
470.00	0.051714
471.00	0.051880
472.00	0.052325
473.00	0.052586
474.00	0.052856
475.00	0.052786
476.00	0.052975
477.00	0.052766
478.00	0.052614
479.00	0.052257
480.00	0.051784
481.00	0.051203
482.00	0.050485
483.00	0.049550
484.00	0.048595
485.00	0.047193
486.00	0.046586
487.00	0.045850
488.00	0.043784
489.00	0.041788
490.00	0.040303
491.00	0.038563
492.00	0.036764
493.00	0.035065
494.00	0.033351
495.00	0.031762
496.00	0.030241
497.00	0.028601
498.00	0.027357
499.00	0.026230
500.00	0.024974
501.00	0.024129
502.00	0.023398
503.00	0.022745
504.00	0.022088
505.00	0.021823
506.00	0.021721
507.00	0.021857
508.00	0.022057
509.00	0.022402
510.00	0.023000
511.00	0.023611
512.00	0.024225
513.00	0.024802
514.00	0.025048
515.00	0.025156
516.00	0.025096
517.00	0.024855
518.00	0.024417
519.00	0.024005
520.00	0.023637
521.00	0.023258
522.00	0.022840
523.00	0.022515
524.00	0.022140
525.00	0.021813
526.00	0.021373
527.00	0.020745
528.00	0.020184
529.00	0.019571
530.00	0.019102
531.00	0.018257
532.00	0.017845
533.00	0.017305
534.00	0.017158
535.00	0.017003
536.00	0.016878
537.00	0.016911
538.00	0.017179
539.00	0.017246
540.00	0.017334
541.00	0.017472
542.00	0.017700
543.00	0.017823
544.00	0.017874
545.00	0.018099
546.00	0.018071
547.00	0.018303
548.00	0.018670
549.00	0.018893
550.00	0.019235
551.00	0.019574
552.00	0.020062
553.00	0.020553
554.00	0.021034
555.00	0.021484
556.00	0.021683
557.00	0.021756
558.00	0.021650
559.00	0.021387
560.00	0.021125
561.00	0.020827
562.00	0.020600
563.00	0.020606
564.00	0.020935
565.00	0.021488
566.00	0.022270
567.00	0.023271
568.00	0.024383
569.00	0.025520
570.00	0.026571
571.00	0.027644
572.00	0.028450
573.00	0.028746
574.00	0.028927
575.00	0.028898
576.00	0.028765
577.00	0.028801
578.00	0.029120
579.00	0.029519
580.00	0.030383
581.00	0.031576
582.00	0.032932
583.00	0.033682
584.00	0.034368
585.00	0.034980
586.00	0.034696
587.00	0.033847
588.00	0.032922
589.00	0.031368
590.00	0.029742
591.00	0.028090
592.00	0.026409
593.00	0.025033
594.00	0.023464
595.00	0.022038
596.00	0.020780
597.00	0.019661
598.00	0.018763
599.00	0.018537
600.00	0.018474
601.00	0.018760
602.00	0.019325
603.00	0.020458
604.00	0.021732
605.00	0.023535
606.00	0.025901
607.00	0.029207
608.00	0.033259
609.00	0.038506
610.00	0.045443
611.00	0.053954
612.00	0.064857
613.00	0.078234
614.00	0.094294
615.00	0.11277
616.00	0.13282
617.00	0.15229
618.00	0.16859
619.00	0.17975
620.00	0.18351
621.00	0.17915
622.00	0.16745
623.00	0.15097
624.00	0.13123
625.00	0.11079
626.00	0.091165
627.00	0.073613
628.00	0.058626
629.00	0.046159
630.00	0.036129
631.00	0.028072
632.00	0.021617
633.00	0.016835
634.00	0.013244
635.00	0.010430
636.00	0.0083740
637.00	0.0066545
638.00	0.0053089
639.00	0.0043361
640.00	0.0034285
641.00	0.0029882
642.00	0.0024787
643.00	0.0021934
644.00	0.0020950
645.00	0.0020329
646.00	0.0018285
647.00	0.0017849
648.00	0.0016155
649.00	0.0016232
650.00	0.0016528
651.00	0.0016784
652.00	0.0016443
653.00	0.0017153
654.00	0.0016735
655.00	0.0014639
656.00	0.0014654
657.00	0.0014404
658.00	0.0015328
659.00	0.0014755
660.00	0.0015965
661.00	0.0015942
662.00	0.0015883
663.00	0.0015182
664.00	0.0015204
665.00	0.0016115
666.00	0.0014524
667.00	0.0014443
668.00	0.0014389
669.00	0.0014788
670.00	0.0014850
671.00	0.0014693
672.00	0.0014872
673.00	0.0015357
674.00	0.0015338
675.00	0.0015248
676.00	0.0014875
677.00	0.0014667
678.00	0.0015885
679.00	0.0014963
680.00	0.0014778
681.00	0.0014805
682.00	0.0014377
683.00	0.0014328
684.00	0.0015221
685.00	0.0014682
686.00	0.0014960
687.00	0.0015462
688.00	0.0014658
689.00	0.0014469
690.00	0.0014423
691.00	0.0013380
692.00	0.0014180
693.00	0.0013824
694.00	0.0012736
695.00	0.0012893
696.00	0.0012488
697.00	0.0013764
698.00	0.0013274
699.00	0.0012150
700.00	0.0012567
