Wavelength (nm)	347 C-Ph13 (SE470) abs
300.00	0.071298
300.20	0.072382
300.40	0.073327
300.60	0.074442
300.80	0.075682
301.00	0.076828
301.20	0.078578
301.40	0.079384
301.60	0.080530
301.80	0.081382
302.00	0.083163
302.20	0.084557
302.40	0.085579
302.60	0.086478
302.80	0.087345
303.00	0.088956
303.20	0.090304
303.40	0.091837
303.60	0.092735
303.80	0.094222
304.00	0.094765
304.20	0.096252
304.40	0.097398
304.60	0.098590
304.80	0.099969
305.00	0.10065
305.20	0.10170
305.40	0.10311
305.60	0.10335
305.80	0.10420
306.00	0.10499
306.20	0.10604
306.40	0.10719
306.60	0.10799
306.80	0.10942
307.00	0.10991
307.20	0.11030
307.40	0.11125
307.60	0.11200
307.80	0.11269
308.00	0.11348
308.20	0.11386
308.40	0.11501
308.60	0.11521
308.80	0.11555
309.00	0.11530
309.20	0.11569
309.40	0.11589
309.60	0.11585
309.80	0.11580
310.00	0.11588
310.20	0.11623
310.40	0.11668
310.60	0.11715
310.80	0.11786
311.00	0.11800
311.20	0.11859
311.40	0.11738
311.60	0.11781
311.80	0.11769
312.00	0.11805
312.20	0.11752
312.40	0.11758
312.60	0.11777
312.80	0.11791
313.00	0.11786
313.20	0.11795
313.40	0.11778
313.60	0.11848
313.80	0.11894
314.00	0.11922
314.20	0.11942
314.40	0.11932
314.60	0.11910
314.80	0.11890
315.00	0.11935
315.20	0.11986
315.40	0.11997
315.60	0.11978
315.80	0.12012
316.00	0.12045
316.20	0.12119
316.40	0.12133
316.60	0.12169
316.80	0.12244
317.00	0.12334
317.20	0.12357
317.40	0.12314
317.60	0.12306
317.80	0.12317
318.00	0.12368
318.20	0.12407
318.40	0.12500
318.60	0.12573
318.80	0.12588
319.00	0.12608
319.20	0.12647
319.40	0.12649
319.60	0.12703
319.80	0.12737
320.00	0.12807
320.20	0.12813
320.40	0.12915
320.60	0.12946
320.80	0.13022
321.00	0.13033
321.20	0.13082
321.40	0.13081
321.60	0.13138
321.80	0.13206
322.00	0.13261
322.20	0.13287
322.40	0.13304
322.60	0.13353
322.80	0.13445
323.00	0.13494
323.20	0.13539
323.40	0.13552
323.60	0.13578
323.80	0.13572
324.00	0.13612
324.20	0.13589
324.40	0.13601
324.60	0.13668
324.80	0.13765
325.00	0.13945
325.20	0.13948
325.40	0.13908
325.60	0.13916
325.80	0.14021
326.00	0.14092
326.20	0.14080
326.40	0.14083
326.60	0.14143
326.80	0.14173
327.00	0.14137
327.20	0.14164
327.40	0.14147
327.60	0.14191
327.80	0.14178
328.00	0.14207
328.20	0.14167
328.40	0.14213
328.60	0.14193
328.80	0.14215
329.00	0.14250
329.20	0.14314
329.40	0.14339
329.60	0.14345
329.80	0.14339
330.00	0.14379
330.20	0.14408
330.40	0.14430
330.60	0.14455
330.80	0.14478
331.00	0.14478
331.20	0.14503
331.40	0.14478
331.60	0.14492
331.80	0.14557
332.00	0.14642
332.20	0.14703
332.40	0.14726
332.60	0.14744
332.80	0.14837
333.00	0.14848
333.20	0.14878
333.40	0.14898
333.60	0.14895
333.80	0.14998
334.00	0.15102
334.20	0.15183
334.40	0.15192
334.60	0.15327
334.80	0.15262
335.00	0.15280
335.20	0.15349
335.40	0.15542
335.60	0.15630
335.80	0.15638
336.00	0.15686
336.20	0.15840
336.40	0.15922
336.60	0.15973
336.80	0.16019
337.00	0.16083
337.20	0.16160
337.40	0.16202
337.60	0.16303
337.80	0.16402
338.00	0.16532
338.20	0.16606
338.40	0.16693
338.60	0.16721
338.80	0.16780
339.00	0.16899
339.20	0.17035
339.40	0.17206
339.60	0.17365
339.80	0.17424
340.00	0.17449
340.20	0.17520
340.40	0.17636
340.60	0.17757
340.80	0.17850
341.00	0.17963
341.20	0.18078
341.40	0.18213
341.60	0.18304
341.80	0.18426
342.00	0.18508
342.20	0.18671
342.40	0.18783
342.60	0.18910
342.80	0.19026
343.00	0.19176
343.20	0.19300
343.40	0.19408
343.60	0.19514
343.80	0.19622
344.00	0.19718
344.20	0.19833
344.40	0.19952
344.60	0.20064
344.80	0.20150
345.00	0.20231
345.20	0.20325
345.40	0.20383
345.60	0.20507
345.80	0.20616
346.00	0.20739
346.20	0.20829
346.40	0.20900
346.60	0.21004
346.80	0.21092
347.00	0.21204
347.20	0.21295
347.40	0.21372
347.60	0.21434
347.80	0.21492
348.00	0.21597
348.20	0.21684
348.40	0.21758
348.60	0.21822
348.80	0.21893
349.00	0.21967
349.20	0.22054
349.40	0.22169
349.60	0.22258
349.80	0.22325
350.00	0.22367
350.20	0.22433
350.40	0.22509
350.60	0.22599
350.80	0.22673
351.00	0.22748
351.20	0.22824
351.40	0.22900
351.60	0.22989
351.80	0.23076
352.00	0.23163
352.20	0.23262
352.40	0.23357
352.60	0.23468
352.80	0.23555
353.00	0.23597
353.20	0.23696
353.40	0.23804
353.60	0.23927
353.80	0.24033
354.00	0.24156
354.20	0.24258
354.40	0.24368
354.60	0.24483
354.80	0.24599
355.00	0.24724
355.20	0.24859
355.40	0.24998
355.60	0.25152
355.80	0.25283
356.00	0.25463
356.20	0.25596
356.40	0.25728
356.60	0.25858
356.80	0.25996
357.00	0.26159
357.20	0.26300
357.40	0.26447
357.60	0.26592
357.80	0.26767
358.00	0.26952
358.20	0.27125
358.40	0.27280
358.60	0.27435
358.80	0.27629
359.00	0.27831
359.20	0.28042
359.40	0.28226
359.60	0.28414
359.80	0.28598
360.00	0.28775
360.20	0.28948
360.40	0.29108
360.60	0.29317
360.80	0.29507
361.00	0.29687
361.20	0.29850
361.40	0.30026
361.60	0.30209
361.80	0.30400
362.00	0.30570
362.20	0.30730
362.40	0.30914
362.60	0.31100
362.80	0.31284
363.00	0.31461
363.20	0.31622
363.40	0.31795
363.60	0.31953
363.80	0.32108
364.00	0.32268
364.20	0.32423
364.40	0.32559
364.60	0.32689
364.80	0.32825
365.00	0.32951
365.20	0.33076
365.40	0.33194
365.60	0.33299
365.80	0.33408
366.00	0.33507
366.20	0.33575
366.40	0.33651
366.60	0.33696
366.80	0.33767
367.00	0.33814
367.20	0.33869
367.40	0.33891
367.60	0.33937
367.80	0.33967
368.00	0.33987
368.20	0.33981
368.40	0.33965
368.60	0.33950
368.80	0.33931
369.00	0.33913
369.20	0.33883
369.40	0.33868
369.60	0.33837
369.80	0.33810
370.00	0.33736
370.20	0.33651
370.40	0.33573
370.60	0.33513
370.80	0.33459
371.00	0.33408
371.20	0.33341
371.40	0.33285
371.60	0.33214
371.80	0.33157
372.00	0.33058
372.20	0.32986
372.40	0.32909
372.60	0.32861
372.80	0.32827
373.00	0.32777
373.20	0.32718
373.40	0.32656
373.60	0.32621
373.80	0.32615
374.00	0.32577
374.20	0.32542
374.40	0.32494
374.60	0.32478
374.80	0.32508
375.00	0.32531
375.20	0.32550
375.40	0.32540
375.60	0.32548
375.80	0.32591
376.00	0.32658
376.20	0.32715
376.40	0.32763
376.60	0.32807
376.80	0.32878
377.00	0.32962
377.20	0.33059
377.40	0.33169
377.60	0.33265
377.80	0.33378
378.00	0.33496
378.20	0.33617
378.40	0.33752
378.60	0.33914
378.80	0.34057
379.00	0.34212
379.20	0.34360
379.40	0.34535
379.60	0.34712
379.80	0.34895
380.00	0.35094
380.20	0.35282
380.40	0.35479
380.60	0.35661
380.80	0.35886
381.00	0.36120
381.20	0.36383
381.40	0.36612
381.60	0.36845
381.80	0.37086
382.00	0.37350
382.20	0.37618
382.40	0.37881
382.60	0.38147
382.80	0.38440
383.00	0.38730
383.20	0.39020
383.40	0.39306
383.60	0.39617
383.80	0.39913
384.00	0.40208
384.20	0.40514
384.40	0.40816
384.60	0.41154
384.80	0.41459
385.00	0.41794
385.20	0.42125
385.40	0.42471
385.60	0.42808
385.80	0.43191
386.00	0.43577
386.20	0.43971
386.40	0.44346
386.60	0.44726
386.80	0.45108
387.00	0.45494
387.20	0.45889
387.40	0.46309
387.60	0.46721
387.80	0.47138
388.00	0.47556
388.20	0.48003
388.40	0.48473
388.60	0.48954
388.80	0.49450
389.00	0.50019
389.20	0.50596
389.40	0.51156
389.60	0.51664
389.80	0.52195
390.00	0.52732
390.20	0.53284
390.40	0.53838
390.60	0.54418
390.80	0.55029
391.00	0.55657
391.20	0.56303
391.40	0.56978
391.60	0.57684
391.80	0.58446
392.00	0.59219
392.20	0.59971
392.40	0.60700
392.60	0.61439
392.80	0.62179
393.00	0.62929
393.20	0.63690
393.40	0.64467
393.60	0.65251
393.80	0.66044
394.00	0.66842
394.20	0.67641
394.40	0.68465
394.60	0.69348
394.80	0.70259
395.00	0.71151
395.20	0.71963
395.40	0.72787
395.60	0.73642
395.80	0.74517
396.00	0.75386
396.20	0.76265
396.40	0.77144
396.60	0.78003
396.80	0.78840
397.00	0.79648
397.20	0.80432
397.40	0.81193
397.60	0.81949
397.80	0.82703
398.00	0.83454
398.20	0.84226
398.40	0.84971
398.60	0.85736
398.80	0.86489
399.00	0.87241
399.20	0.87904
399.40	0.88559
399.60	0.89185
399.80	0.89779
400.00	0.90339
400.20	0.90874
400.40	0.91385
400.60	0.91859
400.80	0.92296
401.00	0.92698
401.20	0.93072
401.40	0.93426
401.60	0.93761
401.80	0.94058
402.00	0.94325
402.20	0.94560
402.40	0.94779
402.60	0.94967
402.80	0.95135
403.00	0.95270
403.20	0.95373
403.40	0.95457
403.60	0.95516
403.80	0.95570
404.00	0.95613
404.20	0.95637
404.40	0.95629
404.60	0.95613
404.80	0.95606
405.00	0.95582
405.20	0.95556
405.40	0.95491
405.60	0.95418
405.80	0.95344
406.00	0.95274
406.20	0.95189
406.40	0.95112
406.60	0.95011
406.80	0.94918
407.00	0.94840
407.20	0.94763
407.40	0.94679
407.60	0.94569
407.80	0.94492
408.00	0.94439
408.20	0.94385
408.40	0.94331
408.60	0.94275
408.80	0.94221
409.00	0.94178
409.20	0.94150
409.40	0.94139
409.60	0.94128
409.80	0.94133
410.00	0.94147
410.20	0.94162
410.40	0.94181
410.60	0.94195
410.80	0.94215
411.00	0.94260
411.20	0.94322
411.40	0.94391
411.60	0.94455
411.80	0.94528
412.00	0.94603
412.20	0.94703
412.40	0.94811
412.60	0.94923
412.80	0.95040
413.00	0.95170
413.20	0.95293
413.40	0.95406
413.60	0.95544
413.80	0.95711
414.00	0.95875
414.20	0.96035
414.40	0.96207
414.60	0.96405
414.80	0.96594
415.00	0.96783
415.20	0.96945
415.40	0.97121
415.60	0.97305
415.80	0.97528
416.00	0.97740
416.20	0.97968
416.40	0.98203
416.60	0.98445
416.80	0.98671
417.00	0.98900
417.20	0.99103
417.40	0.99275
417.60	0.99430
417.80	0.99599
418.00	0.99772
418.20	0.99895
418.40	0.99961
418.60	1.0000
418.80	0.99988
419.00	0.99916
419.20	0.99775
419.40	0.99588
419.60	0.99368
419.80	0.99071
420.00	0.98682
420.20	0.98208
420.40	0.97681
420.60	0.97076
420.80	0.96393
421.00	0.95632
421.20	0.94802
421.40	0.93888
421.60	0.92900
421.80	0.91839
422.00	0.90717
422.20	0.89562
422.40	0.88476
422.60	0.87350
422.80	0.86156
423.00	0.84871
423.20	0.83577
423.40	0.82258
423.60	0.80905
423.80	0.79526
424.00	0.78140
424.20	0.76752
424.40	0.75373
424.60	0.74012
424.80	0.72650
425.00	0.71278
425.20	0.69906
425.40	0.68532
425.60	0.67151
425.80	0.65754
426.00	0.64334
426.20	0.62900
426.40	0.61454
426.60	0.59998
426.80	0.58527
427.00	0.57049
427.20	0.55592
427.40	0.54133
427.60	0.52672
427.80	0.51207
428.00	0.49727
428.20	0.48253
428.40	0.46794
428.60	0.45331
428.80	0.43874
429.00	0.42429
429.20	0.40990
429.40	0.39568
429.60	0.38149
429.80	0.36746
430.00	0.35356
430.20	0.34007
430.40	0.32680
430.60	0.31365
430.80	0.30073
431.00	0.28795
431.20	0.27560
431.40	0.26362
431.60	0.25125
431.80	0.23920
432.00	0.22757
432.20	0.21746
432.40	0.20765
432.60	0.19808
432.80	0.18900
433.00	0.18047
433.20	0.17238
433.40	0.16478
433.60	0.15761
433.80	0.15088
434.00	0.14442
434.20	0.13821
434.40	0.13192
434.60	0.12594
434.80	0.12069
435.00	0.11592
435.20	0.11146
435.40	0.10714
435.60	0.10294
435.80	0.098916
436.00	0.095043
436.20	0.091388
436.40	0.087779
436.60	0.084433
436.80	0.081382
437.00	0.078578
437.20	0.076022
437.40	0.073590
437.60	0.071283
437.80	0.069099
438.00	0.066976
438.20	0.064808
438.40	0.062655
438.60	0.060719
438.80	0.058984
439.00	0.057450
439.20	0.055994
439.40	0.054492
439.60	0.053067
439.80	0.051673
440.00	0.050403
440.20	0.049303
440.40	0.048374
440.60	0.047413
440.80	0.046437
441.00	0.045477
441.20	0.044641
441.40	0.043742
441.60	0.042828
441.80	0.041992
442.00	0.041372
442.20	0.040830
442.40	0.040288
442.60	0.039669
442.80	0.039157
443.00	0.038631
443.20	0.038166
443.40	0.037763
443.60	0.037330
443.80	0.036834
444.00	0.036385
444.20	0.036013
444.40	0.035734
444.60	0.035486
444.80	0.035254
445.00	0.034944
445.20	0.034588
445.40	0.034309
445.60	0.034154
445.80	0.033968
446.00	0.033690
446.20	0.033457
446.40	0.033240
446.60	0.033086
446.80	0.032962
447.00	0.032915
447.20	0.032869
447.40	0.032714
447.60	0.032388
447.80	0.032234
448.00	0.032110
448.20	0.032048
448.40	0.031924
448.60	0.031877
448.80	0.031800
449.00	0.031707
449.20	0.031614
449.40	0.031506
449.60	0.031397
449.80	0.031273
450.00	0.031196
450.20	0.031118
450.40	0.031025
450.60	0.030979
450.80	0.030994
451.00	0.030994
451.20	0.030994
451.40	0.030917
451.60	0.030824
451.80	0.030747
452.00	0.030669
452.20	0.030623
452.40	0.030592
452.60	0.030452
452.80	0.030390
453.00	0.030313
453.20	0.030359
453.40	0.030390
453.60	0.030406
453.80	0.030437
454.00	0.030328
454.20	0.030313
454.40	0.030266
454.60	0.030251
454.80	0.030204
455.00	0.030173
455.20	0.030189
455.40	0.030266
455.60	0.030313
455.80	0.030359
456.00	0.030406
456.20	0.030483
456.40	0.030576
456.60	0.030576
456.80	0.030545
457.00	0.030499
457.20	0.030483
457.40	0.030483
457.60	0.030561
457.80	0.030700
458.00	0.030886
458.20	0.030979
458.40	0.030932
458.60	0.030871
458.80	0.030886
459.00	0.030963
459.20	0.030979
459.40	0.030932
459.60	0.030948
459.80	0.030994
460.00	0.031025
460.20	0.031041
460.40	0.031118
460.60	0.031165
460.80	0.031118
461.00	0.031087
461.20	0.031072
461.40	0.031134
461.60	0.031165
461.80	0.031118
462.00	0.031010
462.20	0.030948
462.40	0.030840
462.60	0.030778
462.80	0.030669
463.00	0.030607
463.20	0.030514
463.40	0.030468
463.60	0.030406
463.80	0.030344
464.00	0.030220
464.20	0.030173
464.40	0.030173
464.60	0.030127
464.80	0.030050
465.00	0.029910
465.20	0.029740
465.40	0.029662
465.60	0.029538
465.80	0.029368
466.00	0.029229
466.20	0.029182
466.40	0.029151
466.60	0.029058
466.80	0.028872
467.00	0.028810
467.20	0.028764
467.40	0.028671
467.60	0.028547
467.80	0.028454
468.00	0.028330
468.20	0.028191
468.40	0.028098
468.60	0.028020
468.80	0.027989
469.00	0.027974
469.20	0.027881
469.40	0.027757
469.60	0.027695
469.80	0.027633
470.00	0.027602
470.20	0.027571
470.40	0.027602
470.60	0.027587
470.80	0.027602
471.00	0.027618
471.20	0.027649
471.40	0.027649
471.60	0.027664
471.80	0.027649
472.00	0.027633
472.20	0.027680
472.40	0.027804
472.60	0.027928
472.80	0.027943
473.00	0.027989
473.20	0.028113
473.40	0.028206
473.60	0.028237
473.80	0.028237
474.00	0.028253
474.20	0.028284
474.40	0.028361
474.60	0.028454
474.80	0.028625
475.00	0.028810
475.20	0.028872
475.40	0.028857
475.60	0.028919
475.80	0.028981
476.00	0.029105
476.20	0.029151
476.40	0.029213
476.60	0.029213
476.80	0.029229
477.00	0.029291
477.20	0.029368
477.40	0.029430
477.60	0.029538
477.80	0.029647
478.00	0.029755
478.20	0.029786
478.40	0.029833
478.60	0.029926
478.80	0.030003
479.00	0.030096
479.20	0.030204
479.40	0.030282
479.60	0.030406
479.80	0.030530
480.00	0.030623
480.20	0.030793
480.40	0.030901
480.60	0.030979
480.80	0.030994
481.00	0.031149
481.20	0.031335
481.40	0.031568
481.60	0.031846
481.80	0.032094
482.00	0.032296
482.20	0.032450
482.40	0.032698
482.60	0.032962
482.80	0.033240
483.00	0.033473
483.20	0.033767
483.40	0.034139
483.60	0.034526
483.80	0.034929
484.00	0.035285
484.20	0.035703
484.40	0.036059
484.60	0.036416
484.80	0.036849
485.00	0.037392
485.20	0.037903
485.40	0.038398
485.60	0.038941
485.80	0.039529
486.00	0.040102
486.20	0.040675
486.40	0.041310
486.60	0.041992
486.80	0.042658
487.00	0.043340
487.20	0.044099
487.40	0.044935
487.60	0.045787
487.80	0.046608
488.00	0.047506
488.20	0.048420
488.40	0.049427
488.60	0.050542
488.80	0.051673
489.00	0.052695
489.20	0.053702
489.40	0.054802
489.60	0.055979
489.80	0.057218
490.00	0.058535
490.20	0.059960
490.40	0.061416
490.60	0.062856
490.80	0.064281
491.00	0.065644
491.20	0.067116
491.40	0.068820
491.60	0.070493
491.80	0.072026
492.00	0.073436
492.20	0.074876
492.40	0.076332
492.60	0.077742
492.80	0.079213
493.00	0.080654
493.20	0.082017
493.40	0.083256
493.60	0.084449
493.80	0.085626
494.00	0.086757
494.20	0.087887
494.40	0.089033
494.60	0.090040
494.80	0.090892
495.00	0.091729
495.20	0.092503
495.40	0.093138
495.60	0.093742
495.80	0.094315
496.00	0.094811
496.20	0.095198
496.40	0.095462
496.60	0.095663
496.80	0.095880
497.00	0.096097
497.20	0.096283
497.40	0.096344
497.60	0.096437
497.80	0.096499
498.00	0.096468
498.20	0.096422
498.40	0.096406
498.60	0.096422
498.80	0.096437
499.00	0.096546
499.20	0.096608
499.40	0.096732
499.60	0.096794
499.80	0.096871
500.00	0.097011
500.20	0.097243
500.40	0.097584
500.60	0.097971
500.80	0.098358
501.00	0.098792
501.20	0.099303
501.40	0.099923
501.60	0.10064
501.80	0.10139
502.00	0.10220
502.20	0.10299
502.40	0.10389
502.60	0.10477
502.80	0.10564
503.00	0.10654
503.20	0.10753
503.40	0.10852
503.60	0.10960
503.80	0.11072
504.00	0.11176
504.20	0.11272
504.40	0.11366
504.60	0.11454
504.80	0.11540
505.00	0.11616
505.20	0.11687
505.40	0.11746
505.60	0.11805
505.80	0.11856
506.00	0.11904
506.20	0.11947
506.40	0.11973
506.60	0.11983
506.80	0.11972
507.00	0.11947
507.20	0.11908
507.40	0.11868
507.60	0.11818
507.80	0.11753
508.00	0.11673
508.20	0.11594
508.40	0.11502
508.60	0.11403
508.80	0.11293
509.00	0.11193
509.20	0.11092
509.40	0.10970
509.60	0.10835
509.80	0.10709
510.00	0.10579
510.20	0.10443
510.40	0.10300
510.60	0.10146
510.80	0.099861
511.00	0.098265
511.20	0.096685
511.40	0.095074
511.60	0.093463
511.80	0.091853
512.00	0.090226
512.20	0.088615
512.40	0.086942
512.60	0.085270
512.80	0.083612
513.00	0.081908
513.20	0.080235
513.40	0.078485
513.60	0.076797
513.80	0.075108
514.00	0.073405
514.20	0.071716
514.40	0.070028
514.60	0.068386
514.80	0.066729
515.00	0.065180
515.20	0.063646
515.40	0.062175
515.60	0.060672
515.80	0.059294
516.00	0.057946
516.20	0.056599
516.40	0.055266
516.60	0.054043
516.80	0.052866
517.00	0.051580
517.20	0.050418
517.40	0.049226
517.60	0.048188
517.80	0.047119
518.00	0.046128
518.20	0.045090
518.40	0.044099
518.60	0.043262
518.80	0.042534
519.00	0.041837
519.20	0.041094
519.40	0.040366
519.60	0.039607
519.80	0.038879
520.00	0.038151
520.20	0.037500
520.40	0.036865
520.60	0.036307
520.80	0.035703
521.00	0.035161
521.20	0.034619
521.40	0.034077
521.60	0.033674
521.80	0.033271
522.00	0.032869
522.20	0.032435
522.40	0.032079
522.60	0.031784
522.80	0.031428
523.00	0.031072
523.20	0.030747
523.40	0.030421
523.60	0.030112
523.80	0.029864
524.00	0.029678
524.20	0.029507
524.40	0.029337
524.60	0.029260
524.80	0.029151
525.00	0.028934
525.20	0.028748
525.40	0.028702
525.60	0.028764
525.80	0.028733
526.00	0.028764
526.20	0.028779
526.40	0.028903
526.60	0.029058
526.80	0.029291
527.00	0.029461
527.20	0.029709
527.40	0.029910
527.60	0.030143
527.80	0.030328
528.00	0.030623
528.20	0.030932
528.40	0.031258
528.60	0.031614
528.80	0.031970
529.00	0.032342
529.20	0.032714
529.40	0.033101
529.60	0.033488
529.80	0.033814
530.00	0.034092
530.20	0.034294
530.40	0.034557
530.60	0.034820
530.80	0.035068
531.00	0.035239
531.20	0.035347
531.40	0.035440
531.60	0.035486
531.80	0.035471
532.00	0.035347
532.20	0.035208
532.40	0.035068
532.60	0.034913
532.80	0.034650
533.00	0.034340
533.20	0.033953
533.40	0.033628
533.60	0.033256
533.80	0.032776
534.00	0.032357
534.20	0.031846
534.40	0.031382
534.60	0.030901
534.80	0.030344
535.00	0.029724
535.20	0.029120
535.40	0.028563
535.60	0.028020
535.80	0.027463
536.00	0.026859
536.20	0.026193
536.40	0.025589
536.60	0.025015
536.80	0.024489
537.00	0.023900
537.20	0.023374
537.40	0.022862
537.60	0.022429
537.80	0.021933
538.00	0.021530
538.20	0.021128
538.40	0.020756
538.60	0.020338
538.80	0.019857
539.00	0.019486
539.20	0.019176
539.40	0.018928
539.60	0.018618
539.80	0.018324
540.00	0.018030
540.20	0.017766
540.40	0.017534
540.60	0.017302
540.80	0.017131
541.00	0.016961
541.20	0.016868
541.40	0.016760
541.60	0.016605
541.80	0.016481
542.00	0.016388
542.20	0.016326
542.40	0.016217
542.60	0.016156
542.80	0.016094
543.00	0.016063
543.20	0.016016
543.40	0.016016
543.60	0.016078
543.80	0.016063
544.00	0.016001
544.20	0.016001
544.40	0.016016
544.60	0.016094
544.80	0.016109
545.00	0.016063
545.20	0.016063
545.40	0.016171
545.60	0.016248
545.80	0.016279
546.00	0.016341
546.20	0.016481
546.40	0.016574
546.60	0.016589
546.80	0.016620
547.00	0.016667
547.20	0.016729
547.40	0.016760
547.60	0.016822
547.80	0.016914
548.00	0.017007
548.20	0.017085
548.40	0.017116
548.60	0.017178
548.80	0.017271
549.00	0.017364
549.20	0.017333
549.40	0.017379
549.60	0.017503
549.80	0.017596
550.00	0.017689
550.20	0.017720
550.40	0.017766
550.60	0.017766
550.80	0.017751
551.00	0.017751
551.20	0.017782
551.40	0.017735
551.60	0.017720
551.80	0.017704
552.00	0.017643
552.20	0.017581
552.40	0.017457
552.60	0.017364
552.80	0.017317
553.00	0.017271
553.20	0.017178
553.40	0.017054
553.60	0.016914
553.80	0.016791
554.00	0.016760
554.20	0.016667
554.40	0.016543
554.60	0.016357
554.80	0.016233
555.00	0.016016
555.20	0.015877
555.40	0.015784
555.60	0.015660
555.80	0.015505
556.00	0.015366
556.20	0.015211
556.40	0.015118
556.60	0.014978
556.80	0.014854
557.00	0.014715
557.20	0.014545
557.40	0.014390
557.60	0.014266
557.80	0.014126
558.00	0.013987
