Wavelength (nm)	392  C-1.abs
300.00	0.23222
301.00	0.23576
302.00	0.23938
303.00	0.24270
304.00	0.24537
305.00	0.24751
306.00	0.24913
307.00	0.25059
308.00	0.25150
309.00	0.25256
310.00	0.25431
311.00	0.25611
312.00	0.25839
313.00	0.26112
314.00	0.26390
315.00	0.26677
316.00	0.26933
317.00	0.27183
318.00	0.27433
319.00	0.27666
320.00	0.27889
321.00	0.28130
322.00	0.28362
323.00	0.28655
324.00	0.28953
325.00	0.29355
326.00	0.29779
327.00	0.30323
328.00	0.30938
329.00	0.31632
330.00	0.32288
331.00	0.32917
332.00	0.33487
333.00	0.33965
334.00	0.34321
335.00	0.34567
336.00	0.34751
337.00	0.34872
338.00	0.34976
339.00	0.35117
340.00	0.35315
341.00	0.35603
342.00	0.35982
343.00	0.36472
344.00	0.37084
345.00	0.37859
346.00	0.38768
347.00	0.39823
348.00	0.40977
349.00	0.42311
350.00	0.43733
351.00	0.45258
352.00	0.46862
353.00	0.48437
354.00	0.50016
355.00	0.51433
356.00	0.52652
357.00	0.53699
358.00	0.54612
359.00	0.55483
360.00	0.56516
361.00	0.57514
362.00	0.58249
363.00	0.58530
364.00	0.58570
365.00	0.58593
366.00	0.59160
367.00	0.60327
368.00	0.61681
369.00	0.63254
370.00	0.64908
371.00	0.66492
372.00	0.67874
373.00	0.69249
374.00	0.70953
375.00	0.72451
376.00	0.73654
377.00	0.74740
378.00	0.75564
379.00	0.76248
380.00	0.76574
381.00	0.77098
382.00	0.77309
383.00	0.76975
384.00	0.76649
385.00	0.76022
386.00	0.75334
387.00	0.74465
388.00	0.73564
389.00	0.72621
390.00	0.71895
391.00	0.71042
392.00	0.70526
393.00	0.69995
394.00	0.70303
395.00	0.70483
396.00	0.71260
397.00	0.72300
398.00	0.73580
399.00	0.75160
400.00	0.77307
401.00	0.79165
402.00	0.81052
403.00	0.83014
404.00	0.84610
405.00	0.85793
406.00	0.86747
407.00	0.87373
408.00	0.87326
409.00	0.86684
410.00	0.86013
411.00	0.85193
412.00	0.83904
413.00	0.82397
414.00	0.81267
415.00	0.79943
416.00	0.78361
417.00	0.76780
418.00	0.75179
419.00	0.73442
420.00	0.71521
421.00	0.69492
422.00	0.67570
423.00	0.65548
424.00	0.63468
425.00	0.61090
426.00	0.58852
427.00	0.56430
428.00	0.54167
429.00	0.51995
430.00	0.49636
431.00	0.47950
432.00	0.46256
433.00	0.44363
434.00	0.42714
435.00	0.41641
436.00	0.40233
437.00	0.39115
438.00	0.38104
439.00	0.37063
440.00	0.36137
441.00	0.34985
442.00	0.33948
443.00	0.32756
444.00	0.31355
445.00	0.29819
446.00	0.28121
447.00	0.26268
448.00	0.24326
449.00	0.22250
450.00	0.20233
451.00	0.18270
452.00	0.16376
453.00	0.14617
454.00	0.12967
455.00	0.11459
456.00	0.10142
457.00	0.089839
458.00	0.079888
459.00	0.071195
460.00	0.063510
461.00	0.056822
462.00	0.051662
463.00	0.047371
464.00	0.043381
465.00	0.040529
466.00	0.038118
467.00	0.036409
468.00	0.035090
469.00	0.034170
470.00	0.033615
471.00	0.033422
472.00	0.033973
473.00	0.034686
474.00	0.035390
475.00	0.036215
476.00	0.036568
477.00	0.037259
478.00	0.037792
479.00	0.038474
480.00	0.039098
481.00	0.039633
482.00	0.039876
483.00	0.040518
484.00	0.040982
485.00	0.041658
486.00	0.041732
487.00	0.041198
488.00	0.041261
489.00	0.041335
490.00	0.041025
491.00	0.041144
492.00	0.040684
493.00	0.040877
494.00	0.040642
495.00	0.040445
496.00	0.040669
497.00	0.040699
498.00	0.040684
499.00	0.041013
500.00	0.041992
501.00	0.043286
502.00	0.044541
503.00	0.046629
504.00	0.049162
505.00	0.051826
506.00	0.055842
507.00	0.059723
508.00	0.064198
509.00	0.068409
510.00	0.072830
511.00	0.076909
512.00	0.080862
513.00	0.084924
514.00	0.088398
515.00	0.091449
516.00	0.094283
517.00	0.096921
518.00	0.099253
519.00	0.10079
520.00	0.10169
521.00	0.10172
522.00	0.10076
523.00	0.098643
524.00	0.095654
525.00	0.091679
526.00	0.087181
527.00	0.082423
528.00	0.077819
529.00	0.073721
530.00	0.070187
531.00	0.067441
532.00	0.065308
533.00	0.064512
534.00	0.064915
535.00	0.066229
536.00	0.068666
537.00	0.072179
538.00	0.077259
539.00	0.083481
540.00	0.091093
541.00	0.10047
542.00	0.11081
543.00	0.12280
544.00	0.13689
545.00	0.15220
546.00	0.16890
547.00	0.18750
548.00	0.20578
549.00	0.22328
550.00	0.23902
551.00	0.25116
552.00	0.25903
553.00	0.26174
554.00	0.25861
555.00	0.25036
556.00	0.23738
557.00	0.22081
558.00	0.20137
559.00	0.18080
560.00	0.15959
561.00	0.13986
562.00	0.12130
563.00	0.10477
564.00	0.090258
565.00	0.078464
566.00	0.068525
567.00	0.060575
568.00	0.054578
569.00	0.049766
570.00	0.046251
571.00	0.043573
572.00	0.041664
573.00	0.040443
574.00	0.039788
575.00	0.039076
576.00	0.038426
577.00	0.037862
578.00	0.036853
579.00	0.035974
580.00	0.034936
581.00	0.033988
582.00	0.032823
583.00	0.031773
584.00	0.031122
585.00	0.030408
586.00	0.029421
587.00	0.028921
588.00	0.028049
589.00	0.027203
590.00	0.026569
591.00	0.025929
592.00	0.025204
593.00	0.024818
594.00	0.024261
595.00	0.024010
596.00	0.023775
597.00	0.023575
598.00	0.023505
599.00	0.023655
600.00	0.023583
601.00	0.023515
602.00	0.023478
603.00	0.023594
604.00	0.023501
605.00	0.023535
606.00	0.023757
607.00	0.023912
608.00	0.024280
609.00	0.024679
610.00	0.025423
611.00	0.026322
612.00	0.027468
613.00	0.029011
614.00	0.030755
615.00	0.033264
616.00	0.036217
617.00	0.039795
618.00	0.044014
619.00	0.048714
620.00	0.054101
621.00	0.059301
622.00	0.064739
623.00	0.069631
624.00	0.073836
625.00	0.077791
626.00	0.080854
627.00	0.083636
628.00	0.085878
629.00	0.087986
630.00	0.090137
631.00	0.092113
632.00	0.094395
633.00	0.096181
634.00	0.097537
635.00	0.098101
636.00	0.098414
637.00	0.097924
638.00	0.097205
639.00	0.096523
640.00	0.096059
641.00	0.096432
642.00	0.097275
643.00	0.098425
644.00	0.10014
645.00	0.10220
646.00	0.10505
647.00	0.10826
648.00	0.11139
649.00	0.11345
650.00	0.11483
651.00	0.11571
652.00	0.11615
653.00	0.11563
654.00	0.11409
655.00	0.11278
656.00	0.11059
657.00	0.10413
658.00	0.10136
659.00	0.097156
660.00	0.092212
661.00	0.087039
662.00	0.082472
663.00	0.078513
664.00	0.075010
665.00	0.072546
666.00	0.070979
667.00	0.070982
668.00	0.072249
669.00	0.075253
670.00	0.079802
671.00	0.086284
672.00	0.094535
673.00	0.10441
674.00	0.11672
675.00	0.13060
676.00	0.14678
677.00	0.16616
678.00	0.18890
679.00	0.21597
680.00	0.24991
681.00	0.29087
682.00	0.34126
683.00	0.40136
684.00	0.47298
685.00	0.55273
686.00	0.63963
687.00	0.72828
688.00	0.81478
689.00	0.89040
690.00	0.95043
691.00	0.98795
692.00	1.0000
693.00	0.98535
694.00	0.94532
695.00	0.88166
696.00	0.80121
697.00	0.70971
698.00	0.61274
699.00	0.51650
700.00	0.42724
701.00	0.34846
702.00	0.27970
703.00	0.22216
704.00	0.17540
705.00	0.13778
706.00	0.10804
707.00	0.085118
708.00	0.066927
709.00	0.052873
710.00	0.041657
711.00	0.033238
712.00	0.026248
713.00	0.020888
714.00	0.016679
715.00	0.013293
716.00	0.010509
717.00	0.0084642
718.00	0.0068100
719.00	0.0053805
720.00	0.0044215
721.00	0.0035251
722.00	0.0028121
723.00	0.0023351
724.00	0.0020792
725.00	0.0017074
726.00	0.0016904
727.00	0.0014117
728.00	0.0015105
729.00	0.0014010
730.00	0.0013769
731.00	0.0015922
732.00	0.0017380
733.00	0.0016804
734.00	0.0019434
735.00	0.0019519
736.00	0.0021418
737.00	0.0022263
738.00	0.0023685
739.00	0.0022662
740.00	0.0022150
741.00	0.0021432
742.00	0.0020415
743.00	0.0018048
744.00	0.0017714
745.00	0.0016505
746.00	0.0014991
747.00	0.0014273
748.00	0.0010406
749.00	0.00099867
750.00	0.00069656
