Wavelength (nm)	229 FbC-T10Br15 
300.00	0.086658
301.00	0.086148
302.00	0.085581
303.00	0.085188
304.00	0.084826
305.00	0.084118
306.00	0.082814
307.00	0.081032
308.00	0.078702
309.00	0.075308
310.00	0.072005
311.00	0.068500
312.00	0.065622
313.00	0.063208
314.00	0.061583
315.00	0.060836
316.00	0.060751
317.00	0.061217
318.00	0.062403
319.00	0.063882
320.00	0.065710
321.00	0.067675
322.00	0.069877
323.00	0.072235
324.00	0.074456
325.00	0.076543
326.00	0.078679
327.00	0.080749
328.00	0.082763
329.00	0.084812
330.00	0.086918
331.00	0.089119
332.00	0.091559
333.00	0.094064
334.00	0.097008
335.00	0.10023
336.00	0.10364
337.00	0.10723
338.00	0.11129
339.00	0.11529
340.00	0.11943
341.00	0.12339
342.00	0.12683
343.00	0.12998
344.00	0.13253
345.00	0.13480
346.00	0.13679
347.00	0.13893
348.00	0.14145
349.00	0.14466
350.00	0.14881
351.00	0.15416
352.00	0.16069
353.00	0.16852
354.00	0.17706
355.00	0.18606
356.00	0.19495
357.00	0.20343
358.00	0.21044
359.00	0.21658
360.00	0.22137
361.00	0.22439
362.00	0.22479
363.00	0.22328
364.00	0.22021
365.00	0.21619
366.00	0.21190
367.00	0.20750
368.00	0.20370
369.00	0.20230
370.00	0.20289
371.00	0.20556
372.00	0.20963
373.00	0.21598
374.00	0.22405
375.00	0.23336
376.00	0.24356
377.00	0.25474
378.00	0.26651
379.00	0.27938
380.00	0.29246
381.00	0.30794
382.00	0.32572
383.00	0.34583
384.00	0.36826
385.00	0.39247
386.00	0.41843
387.00	0.44750
388.00	0.47867
389.00	0.51147
390.00	0.54591
391.00	0.58478
392.00	0.62848
393.00	0.67202
394.00	0.71553
395.00	0.75907
396.00	0.80341
397.00	0.84884
398.00	0.89311
399.00	0.92543
400.00	0.95505
401.00	0.97882
402.00	0.99199
403.00	1.0000
404.00	0.99807
405.00	0.98844
406.00	0.97370
407.00	0.95092
408.00	0.92813
409.00	0.90518
410.00	0.88540
411.00	0.86985
412.00	0.85519
413.00	0.84094
414.00	0.82279
415.00	0.79330
416.00	0.75076
417.00	0.69371
418.00	0.62238
419.00	0.54348
420.00	0.45997
421.00	0.37861
422.00	0.30787
423.00	0.24841
424.00	0.19514
425.00	0.15067
426.00	0.11640
427.00	0.088547
428.00	0.068016
429.00	0.052300
430.00	0.040466
431.00	0.032668
432.00	0.026270
433.00	0.020395
434.00	0.015594
435.00	0.014053
436.00	0.012330
437.00	0.011312
438.00	0.010272
439.00	0.0091502
440.00	0.0084188
441.00	0.0073099
442.00	0.0066607
443.00	0.0067202
444.00	0.0063271
445.00	0.0064970
446.00	0.0064485
447.00	0.0066991
448.00	0.0072802
449.00	0.0076106
450.00	0.0079231
451.00	0.0086420
452.00	0.0090414
453.00	0.0097133
454.00	0.010578
455.00	0.011081
456.00	0.011948
457.00	0.012944
458.00	0.013539
459.00	0.014525
460.00	0.015534
461.00	0.016140
462.00	0.016321
463.00	0.016470
464.00	0.016968
465.00	0.017876
466.00	0.018140
467.00	0.018641
468.00	0.018992
469.00	0.019330
470.00	0.019577
471.00	0.019716
472.00	0.020181
473.00	0.020306
474.00	0.020484
475.00	0.020651
476.00	0.020966
477.00	0.021197
478.00	0.020971
479.00	0.020938
480.00	0.021390
481.00	0.021725
482.00	0.022311
483.00	0.023150
484.00	0.024285
485.00	0.024341
486.00	0.024563
487.00	0.028560
488.00	0.032779
489.00	0.037688
490.00	0.042286
491.00	0.047099
492.00	0.051503
493.00	0.055280
494.00	0.058258
495.00	0.060231
496.00	0.062123
497.00	0.063580
498.00	0.065313
499.00	0.067248
500.00	0.070131
501.00	0.073547
502.00	0.076954
503.00	0.080197
504.00	0.082604
505.00	0.083673
506.00	0.083284
507.00	0.082761
508.00	0.080861
509.00	0.078840
510.00	0.075669
511.00	0.071322
512.00	0.066610
513.00	0.061110
514.00	0.055521
515.00	0.050275
516.00	0.045105
517.00	0.040938
518.00	0.037598
519.00	0.034280
520.00	0.032064
521.00	0.030614
522.00	0.029576
523.00	0.029562
524.00	0.030471
525.00	0.032861
526.00	0.036164
527.00	0.040436
528.00	0.045101
529.00	0.049188
530.00	0.052764
531.00	0.054933
532.00	0.055276
533.00	0.054315
534.00	0.051836
535.00	0.048928
536.00	0.045558
537.00	0.041996
538.00	0.038318
539.00	0.034997
540.00	0.032337
541.00	0.030279
542.00	0.027850
543.00	0.025692
544.00	0.023595
545.00	0.021322
546.00	0.019787
547.00	0.017682
548.00	0.015587
549.00	0.014167
550.00	0.012826
551.00	0.011541
552.00	0.010353
553.00	0.0092826
554.00	0.0087634
555.00	0.0079591
556.00	0.0072637
557.00	0.0070170
558.00	0.0067476
559.00	0.0067273
560.00	0.0063373
561.00	0.0058424
562.00	0.0059160
563.00	0.0057304
564.00	0.0052762
565.00	0.0050248
566.00	0.0050577
567.00	0.0047930
568.00	0.0043803
569.00	0.0043411
570.00	0.0043678
571.00	0.0048071
572.00	0.0050467
573.00	0.0053584
574.00	0.0056568
575.00	0.0066599
576.00	0.0074885
577.00	0.0080875
578.00	0.0087720
579.00	0.010907
580.00	0.012983
581.00	0.016030
582.00	0.017732
583.00	0.020941
584.00	0.023757
585.00	0.025130
586.00	0.026168
587.00	0.027248
588.00	0.027856
589.00	0.029286
590.00	0.030206
591.00	0.031353
592.00	0.031573
593.00	0.029689
594.00	0.028371
595.00	0.026369
596.00	0.024136
597.00	0.022137
598.00	0.020102
599.00	0.017826
600.00	0.016222
601.00	0.014997
602.00	0.014027
603.00	0.012900
604.00	0.012898
605.00	0.013103
606.00	0.012787
607.00	0.012480
608.00	0.011741
609.00	0.011529
610.00	0.010878
611.00	0.011063
612.00	0.011019
613.00	0.010716
614.00	0.010722
615.00	0.010170
616.00	0.0094697
617.00	0.0091361
618.00	0.0086874
619.00	0.0090508
620.00	0.0089631
621.00	0.010045
622.00	0.010926
623.00	0.012206
624.00	0.014382
625.00	0.017795
626.00	0.021999
627.00	0.026855
628.00	0.032133
629.00	0.037334
630.00	0.042282
631.00	0.047369
632.00	0.052264
633.00	0.057955
634.00	0.066111
635.00	0.079308
636.00	0.10017
637.00	0.13046
638.00	0.17068
639.00	0.21520
640.00	0.25815
641.00	0.29109
642.00	0.30629
643.00	0.30208
644.00	0.27980
645.00	0.24525
646.00	0.20481
647.00	0.16456
648.00	0.12836
649.00	0.098270
650.00	0.074892
651.00	0.056843
652.00	0.043379
653.00	0.033414
654.00	0.025991
655.00	0.020453
656.00	0.014391
657.00	0.010668
658.00	0.0098707
659.00	0.0080460
660.00	0.0065519
661.00	0.0052206
662.00	0.0042432
663.00	0.0035706
664.00	0.0031735
665.00	0.0027679
666.00	0.0023442
667.00	0.0022690
668.00	0.0020764
669.00	0.0020184
670.00	0.0019707
671.00	0.0018007
672.00	0.0014898
673.00	0.0013590
674.00	0.0015329
675.00	0.0016104
676.00	0.0015525
677.00	0.0014099
678.00	0.0012690
679.00	0.0011272
680.00	0.00089701
681.00	0.00092363
682.00	0.00091815
683.00	0.00089779
684.00	0.00078972
685.00	0.00053834
686.00	0.00028853
687.00	0.00036214
688.00	0.00033316
689.00	0.00050545
690.00	0.00045690
691.00	0.00046551
692.00	0.00043810
693.00	0.00060569
694.00	0.00067773
695.00	0.00085942
696.00	0.00083592
697.00	0.00060412
698.00	0.00026660
699.00	0.00034569
700.00	0.00043105
