Wavelength (nm)	212 H2C (SE211)
300.00	0.081931
301.00	0.080053
302.00	0.078015
303.00	0.075511
304.00	0.072964
305.00	0.070953
306.00	0.069296
307.00	0.068290
308.00	0.068168
309.00	0.068717
310.00	0.069930
311.00	0.071937
312.00	0.074384
313.00	0.077044
314.00	0.080169
315.00	0.083533
316.00	0.087119
317.00	0.090718
318.00	0.094329
319.00	0.097918
320.00	0.10127
321.00	0.10450
322.00	0.10753
323.00	0.11060
324.00	0.11355
325.00	0.11648
326.00	0.11965
327.00	0.12299
328.00	0.12654
329.00	0.13069
330.00	0.13521
331.00	0.14002
332.00	0.14522
333.00	0.15061
334.00	0.15600
335.00	0.16116
336.00	0.16577
337.00	0.16992
338.00	0.17374
339.00	0.17715
340.00	0.18100
341.00	0.18542
342.00	0.19078
343.00	0.19738
344.00	0.20496
345.00	0.21319
346.00	0.22179
347.00	0.23012
348.00	0.23793
349.00	0.24498
350.00	0.25078
351.00	0.25542
352.00	0.25830
353.00	0.25980
354.00	0.25987
355.00	0.25897
356.00	0.25780
357.00	0.25711
358.00	0.25706
359.00	0.25846
360.00	0.26099
361.00	0.26530
362.00	0.27137
363.00	0.27881
364.00	0.28823
365.00	0.29877
366.00	0.31167
367.00	0.32741
368.00	0.34594
369.00	0.36679
370.00	0.38928
371.00	0.41357
372.00	0.43933
373.00	0.46811
374.00	0.50078
375.00	0.53579
376.00	0.57370
377.00	0.61500
378.00	0.65895
379.00	0.70411
380.00	0.74838
381.00	0.79165
382.00	0.83557
383.00	0.87632
384.00	0.91290
385.00	0.94415
386.00	0.96793
387.00	0.98534
388.00	0.99679
389.00	1.0000
390.00	0.99553
391.00	0.98728
392.00	0.97680
393.00	0.96739
394.00	0.95751
395.00	0.94600
396.00	0.93536
397.00	0.92336
398.00	0.91037
399.00	0.89569
400.00	0.87163
401.00	0.83512
402.00	0.79080
403.00	0.73848
404.00	0.68063
405.00	0.61799
406.00	0.54950
407.00	0.47676
408.00	0.40079
409.00	0.32778
410.00	0.26562
411.00	0.21097
412.00	0.16466
413.00	0.12901
414.00	0.10166
415.00	0.079792
416.00	0.063101
417.00	0.050418
418.00	0.040924
419.00	0.033985
420.00	0.028616
421.00	0.024420
422.00	0.021423
423.00	0.019311
424.00	0.017597
425.00	0.016348
426.00	0.015373
427.00	0.014548
428.00	0.013747
429.00	0.013498
430.00	0.013294
431.00	0.013186
432.00	0.013121
433.00	0.013146
434.00	0.013158
435.00	0.013417
436.00	0.013663
437.00	0.013832
438.00	0.014001
439.00	0.014248
440.00	0.014373
441.00	0.014686
442.00	0.015076
443.00	0.015303
444.00	0.015747
445.00	0.016189
446.00	0.016658
447.00	0.017299
448.00	0.017642
449.00	0.017983
450.00	0.018237
451.00	0.018154
452.00	0.018182
453.00	0.017939
454.00	0.017867
455.00	0.017835
456.00	0.017886
457.00	0.018103
458.00	0.018165
459.00	0.018502
460.00	0.018806
461.00	0.019134
462.00	0.019648
463.00	0.020261
464.00	0.020758
465.00	0.021210
466.00	0.021608
467.00	0.022311
468.00	0.022994
469.00	0.024036
470.00	0.025417
471.00	0.027330
472.00	0.029717
473.00	0.032466
474.00	0.035968
475.00	0.040241
476.00	0.045738
477.00	0.052468
478.00	0.060128
479.00	0.068091
480.00	0.075264
481.00	0.080455
482.00	0.083461
483.00	0.083817
484.00	0.082483
485.00	0.080467
486.00	0.079500
487.00	0.080287
488.00	0.083499
489.00	0.088722
490.00	0.094007
491.00	0.097745
492.00	0.098916
493.00	0.097141
494.00	0.093060
495.00	0.087726
496.00	0.081415
497.00	0.074805
498.00	0.067997
499.00	0.060797
500.00	0.053559
501.00	0.046586
502.00	0.040131
503.00	0.034493
504.00	0.029980
505.00	0.026325
506.00	0.023317
507.00	0.020865
508.00	0.018960
509.00	0.017284
510.00	0.015718
511.00	0.014507
512.00	0.013382
513.00	0.012661
514.00	0.012119
515.00	0.011706
516.00	0.011153
517.00	0.010575
518.00	0.010019
519.00	0.0095077
520.00	0.0090302
521.00	0.0084481
522.00	0.0079866
523.00	0.0075793
524.00	0.0074870
525.00	0.0075234
526.00	0.0077665
527.00	0.0080532
528.00	0.0084578
529.00	0.0087409
530.00	0.0091518
531.00	0.0095139
532.00	0.010130
533.00	0.010710
534.00	0.011299
535.00	0.011689
536.00	0.011703
537.00	0.011424
538.00	0.011085
539.00	0.010623
540.00	0.010151
541.00	0.0098192
542.00	0.0093329
543.00	0.0087755
544.00	0.0083948
545.00	0.0079121
546.00	0.0075109
547.00	0.0071080
548.00	0.0066519
549.00	0.0064771
550.00	0.0065427
551.00	0.0064975
552.00	0.0065907
553.00	0.0065924
554.00	0.0064114
555.00	0.0063422
556.00	0.0062206
557.00	0.0061922
558.00	0.0059384
559.00	0.0058381
560.00	0.0059047
561.00	0.0059091
562.00	0.0059703
563.00	0.0060662
564.00	0.0061922
565.00	0.0064149
566.00	0.0066847
567.00	0.0069696
568.00	0.0072287
569.00	0.0077195
570.00	0.0084197
571.00	0.0097091
572.00	0.011443
573.00	0.013715
574.00	0.016475
575.00	0.019163
576.00	0.021588
577.00	0.023491
578.00	0.024719
579.00	0.025625
580.00	0.026548
581.00	0.028080
582.00	0.029417
583.00	0.030513
584.00	0.031030
585.00	0.030673
586.00	0.029350
587.00	0.027239
588.00	0.024704
589.00	0.022143
590.00	0.019721
591.00	0.017871
592.00	0.016689
593.00	0.016138
594.00	0.016094
595.00	0.016354
596.00	0.016605
597.00	0.016663
598.00	0.016567
599.00	0.016443
600.00	0.016307
601.00	0.016613
602.00	0.017480
603.00	0.018693
604.00	0.019901
605.00	0.021031
606.00	0.021477
607.00	0.021267
608.00	0.020307
609.00	0.018884
610.00	0.017205
611.00	0.015603
612.00	0.014541
613.00	0.014178
614.00	0.014844
615.00	0.016989
616.00	0.020918
617.00	0.026636
618.00	0.033490
619.00	0.040896
620.00	0.048110
621.00	0.053692
622.00	0.057755
623.00	0.060323
624.00	0.062342
625.00	0.066541
626.00	0.076544
627.00	0.096713
628.00	0.12973
629.00	0.17601
630.00	0.23310
631.00	0.29439
632.00	0.35446
633.00	0.39968
634.00	0.42078
635.00	0.41067
636.00	0.37357
637.00	0.31854
638.00	0.25652
639.00	0.19830
640.00	0.14746
641.00	0.10777
642.00	0.077871
643.00	0.057077
644.00	0.042366
645.00	0.032229
646.00	0.025273
647.00	0.020307
648.00	0.016450
649.00	0.013275
650.00	0.010560
651.00	0.0083016
652.00	0.0066031
653.00	0.0053296
654.00	0.0042265
655.00	0.0034243
656.00	0.0028013
657.00	0.0024569
658.00	0.0021712
659.00	0.0019635
660.00	0.0018091
661.00	0.0017248
662.00	0.0017550
663.00	0.0018712
664.00	0.0017798
665.00	0.0016698
666.00	0.0015979
667.00	0.0014745
668.00	0.0014470
669.00	0.0012784
670.00	0.0012252
671.00	0.0011737
672.00	0.0011808
673.00	0.0011009
674.00	0.0010370
675.00	0.0010184
676.00	0.0010077
677.00	0.00093586
678.00	0.00096603
679.00	0.00087995
680.00	0.00090036
681.00	0.00080363
682.00	0.00083025
683.00	0.00081073
684.00	0.00077700
685.00	0.00074506
686.00	0.00071045
687.00	0.00071843
688.00	0.00070335
689.00	0.00071045
690.00	0.00066252
691.00	0.00068648
692.00	0.00066962
693.00	0.00070690
694.00	0.00068205
695.00	0.00065631
696.00	0.00060306
697.00	0.00063413
698.00	0.00060661
699.00	0.00067229
700.00	0.00065010
