Wavelength (nm)	229 FbC-T5Br15
300.00	0.087571
301.00	0.087621
302.00	0.087086
303.00	0.086540
304.00	0.086045
305.00	0.084798
306.00	0.083331
307.00	0.081601
308.00	0.078887
309.00	0.075731
310.00	0.072294
311.00	0.069039
312.00	0.066144
313.00	0.064346
314.00	0.062889
315.00	0.062064
316.00	0.062021
317.00	0.062321
318.00	0.063361
319.00	0.064651
320.00	0.066428
321.00	0.068190
322.00	0.069922
323.00	0.072111
324.00	0.074262
325.00	0.076251
326.00	0.078288
327.00	0.080016
328.00	0.081918
329.00	0.083847
330.00	0.085814
331.00	0.087818
332.00	0.090162
333.00	0.092536
334.00	0.094882
335.00	0.097797
336.00	0.10109
337.00	0.10472
338.00	0.10854
339.00	0.11263
340.00	0.11689
341.00	0.12103
342.00	0.12490
343.00	0.12869
344.00	0.13191
345.00	0.13476
346.00	0.13736
347.00	0.14015
348.00	0.14351
349.00	0.14743
350.00	0.15223
351.00	0.15822
352.00	0.16514
353.00	0.17362
354.00	0.18246
355.00	0.19184
356.00	0.20183
357.00	0.21154
358.00	0.22059
359.00	0.22814
360.00	0.23443
361.00	0.23974
362.00	0.24271
363.00	0.24379
364.00	0.24307
365.00	0.23984
366.00	0.23527
367.00	0.23038
368.00	0.22626
369.00	0.22340
370.00	0.22225
371.00	0.22296
372.00	0.22607
373.00	0.23131
374.00	0.23831
375.00	0.24606
376.00	0.25546
377.00	0.26530
378.00	0.27658
379.00	0.28870
380.00	0.30220
381.00	0.31826
382.00	0.33638
383.00	0.35785
384.00	0.38221
385.00	0.40857
386.00	0.43788
387.00	0.47004
388.00	0.50494
389.00	0.54141
390.00	0.58136
391.00	0.62521
392.00	0.67121
393.00	0.71646
394.00	0.76188
395.00	0.80591
396.00	0.84733
397.00	0.88644
398.00	0.92100
399.00	0.94790
400.00	0.97094
401.00	0.98597
402.00	0.99576
403.00	1.00000
404.00	0.99722
405.00	0.98682
406.00	0.97351
407.00	0.95766
408.00	0.94109
409.00	0.92662
410.00	0.91574
411.00	0.90611
412.00	0.89733
413.00	0.88456
414.00	0.86529
415.00	0.83482
416.00	0.78983
417.00	0.73082
418.00	0.65926
419.00	0.57982
420.00	0.49641
421.00	0.41489
422.00	0.34355
423.00	0.27946
424.00	0.22265
425.00	0.17646
426.00	0.13889
427.00	0.10852
428.00	0.085517
429.00	0.067634
430.00	0.054392
431.00	0.045048
432.00	0.037930
433.00	0.031567
434.00	0.027616
435.00	0.024139
436.00	0.021696
437.00	0.019734
438.00	0.018466
439.00	0.017415
440.00	0.016694
441.00	0.015993
442.00	0.015626
443.00	0.015462
444.00	0.015447
445.00	0.015406
446.00	0.015565
447.00	0.015669
448.00	0.015803
449.00	0.016297
450.00	0.016277
451.00	0.016750
452.00	0.017120
453.00	0.017548
454.00	0.017896
455.00	0.018381
456.00	0.018817
457.00	0.019286
458.00	0.019748
459.00	0.020322
460.00	0.020904
461.00	0.021157
462.00	0.021490
463.00	0.021771
464.00	0.022052
465.00	0.022279
466.00	0.022442
467.00	0.022854
468.00	0.022951
469.00	0.023276
470.00	0.023710
471.00	0.024009
472.00	0.024363
473.00	0.024562
474.00	0.024727
475.00	0.025129
476.00	0.025204
477.00	0.025375
478.00	0.025390
479.00	0.025533
480.00	0.025708
481.00	0.026203
482.00	0.026890
483.00	0.027654
484.00	0.028751
485.00	0.030723
486.00	0.032783
487.00	0.034968
488.00	0.038301
489.00	0.042684
490.00	0.047245
491.00	0.051695
492.00	0.055526
493.00	0.059044
494.00	0.061566
495.00	0.063641
496.00	0.065315
497.00	0.067078
498.00	0.068822
499.00	0.071254
500.00	0.074079
501.00	0.077550
502.00	0.080996
503.00	0.083982
504.00	0.086016
505.00	0.086872
506.00	0.087067
507.00	0.086355
508.00	0.084833
509.00	0.082233
510.00	0.079010
511.00	0.074800
512.00	0.070036
513.00	0.064560
514.00	0.058831
515.00	0.053166
516.00	0.047974
517.00	0.043481
518.00	0.039590
519.00	0.036290
520.00	0.033993
521.00	0.032242
522.00	0.031548
523.00	0.031648
524.00	0.032938
525.00	0.035233
526.00	0.038970
527.00	0.043481
528.00	0.048458
529.00	0.053177
530.00	0.057379
531.00	0.060064
532.00	0.061304
533.00	0.060841
534.00	0.059394
535.00	0.056738
536.00	0.053308
537.00	0.049768
538.00	0.046101
539.00	0.042473
540.00	0.039411
541.00	0.036240
542.00	0.033349
543.00	0.030572
544.00	0.027855
545.00	0.025240
546.00	0.022703
547.00	0.020272
548.00	0.018326
549.00	0.016505
550.00	0.014673
551.00	0.013231
552.00	0.012080
553.00	0.010964
554.00	0.010060
555.00	0.0092284
556.00	0.0086521
557.00	0.0081749
558.00	0.0077477
559.00	0.0074036
560.00	0.0070415
561.00	0.0068092
562.00	0.0064875
563.00	0.0063096
564.00	0.0062042
565.00	0.0059773
566.00	0.0057717
567.00	0.0056630
568.00	0.0057046
569.00	0.0058218
570.00	0.0059741
571.00	0.0063544
572.00	0.0067059
573.00	0.0071959
574.00	0.0077744
575.00	0.0083315
576.00	0.0091187
577.00	0.010135
578.00	0.011442
579.00	0.013424
580.00	0.015968
581.00	0.019129
582.00	0.021693
583.00	0.024042
584.00	0.026094
585.00	0.027361
586.00	0.028172
587.00	0.029165
588.00	0.030104
589.00	0.031110
590.00	0.031930
591.00	0.032075
592.00	0.031766
593.00	0.030826
594.00	0.029293
595.00	0.027364
596.00	0.025117
597.00	0.022750
598.00	0.020470
599.00	0.018429
600.00	0.016972
601.00	0.015939
602.00	0.015227
603.00	0.014860
604.00	0.014336
605.00	0.013908
606.00	0.013485
607.00	0.013117
608.00	0.012918
609.00	0.012896
610.00	0.012703
611.00	0.012400
612.00	0.012104
613.00	0.011506
614.00	0.010958
615.00	0.010493
616.00	0.010239
617.00	0.010191
618.00	0.010322
619.00	0.010731
620.00	0.011275
621.00	0.012133
622.00	0.013403
623.00	0.015348
624.00	0.017685
625.00	0.021018
626.00	0.025645
627.00	0.031392
628.00	0.037685
629.00	0.043961
630.00	0.049737
631.00	0.054521
632.00	0.059092
633.00	0.065023
634.00	0.074385
635.00	0.090764
636.00	0.11626
637.00	0.15094
638.00	0.19392
639.00	0.23787
640.00	0.27422
641.00	0.29775
642.00	0.29907
643.00	0.27972
644.00	0.24751
645.00	0.20991
646.00	0.17090
647.00	0.13512
648.00	0.10456
649.00	0.080140
650.00	0.061333
651.00	0.047127
652.00	0.036751
653.00	0.029189
654.00	0.023347
655.00	0.018410
656.00	0.014899
657.00	0.012977
658.00	0.010100
659.00	0.0077807
660.00	0.0060156
661.00	0.0049056
662.00	0.0039533
663.00	0.0032353
664.00	0.0025301
665.00	0.0022777
666.00	0.0019400
667.00	0.0017440
668.00	0.0015331
669.00	0.0013200
670.00	0.0012348
671.00	0.0012007
672.00	0.0011315
673.00	0.0011070
674.00	0.0010580
675.00	0.0010260
676.00	0.0010207
677.00	0.00098020
678.00	0.00094611
679.00	0.00086195
680.00	0.00077887
681.00	0.00074158
682.00	0.00079911
683.00	0.00077993
684.00	0.00081934
685.00	0.00074904
686.00	0.00068938
687.00	0.00072454
688.00	0.00067447
689.00	0.00064677
690.00	0.00062547
691.00	0.00064677
692.00	0.00058819
693.00	0.00058073
694.00	0.00044331
695.00	0.00057221
696.00	0.00055197
697.00	0.00057327
698.00	0.00051255
699.00	0.00053918
700.00	0.00045929
