Wavelength (nm)	L214 FbC-A3M10A13 (SE227)
 (SE227)	C	D	E	F	G	H	I	J
300.00	0.19852								
301.00	0.19611								
302.00	0.19371								
303.00	0.19050								
304.00	0.18810								
305.00	0.18521								
306.00	0.18254								
307.00	0.18014								
308.00	0.17791								
309.00	0.17669								
310.00	0.17603								
311.00	0.17625								
312.00	0.17672								
313.00	0.17771								
314.00	0.17885								
315.00	0.17995								
316.00	0.18134								
317.00	0.18238								
318.00	0.18284								
319.00	0.18294								
320.00	0.18327								
321.00	0.18305								
322.00	0.18244								
323.00	0.18180								
324.00	0.18123								
325.00	0.18100								
326.00	0.18125								
327.00	0.18160								
328.00	0.18258								
329.00	0.18356								
330.00	0.18503								
331.00	0.18675								
332.00	0.18826								
333.00	0.18946								
334.00	0.19073								
335.00	0.19150								
336.00	0.19215								
337.00	0.19241								
338.00	0.19266								
339.00	0.19326								
340.00	0.19421								
341.00	0.19548								
342.00	0.19687								
343.00	0.19892								
344.00	0.20178								
345.00	0.20495								
346.00	0.20840								
347.00	0.21277								
348.00	0.21733								
349.00	0.22210								
350.00	0.22737								
351.00	0.23257								
352.00	0.23788								
353.00	0.24279								
354.00	0.24776								
355.00	0.25287								
356.00	0.25801								
357.00	0.26244								
358.00	0.26699								
359.00	0.27202								
360.00	0.27729								
361.00	0.28254								
362.00	0.28883								
363.00	0.29557								
364.00	0.30261								
365.00	0.31020								
366.00	0.31775								
367.00	0.32603								
368.00	0.33588								
369.00	0.34677								
370.00	0.35759								
371.00	0.36941								
372.00	0.38248								
373.00	0.39584								
374.00	0.40887								
375.00	0.42212								
376.00	0.43569								
377.00	0.44897								
378.00	0.46181								
379.00	0.47255								
380.00	0.48255								
381.00	0.49162								
382.00	0.49940								
383.00	0.50412								
384.00	0.50806								
385.00	0.51124								
386.00	0.51256								
387.00	0.51172								
388.00	0.50932								
389.00	0.50793								
390.00	0.50566								
391.00	0.50361								
392.00	0.50260								
393.00	0.50200								
394.00	0.50300								
395.00	0.50625								
396.00	0.51170								
397.00	0.51841								
398.00	0.52631								
399.00	0.53573								
400.00	0.54751								
401.00	0.56102								
402.00	0.57636								
403.00	0.59387								
404.00	0.61355								
405.00	0.63487								
406.00	0.65741								
407.00	0.68059								
408.00	0.70615								
409.00	0.73205								
410.00	0.75859								
411.00	0.78457								
412.00	0.81085								
413.00	0.83761								
414.00	0.85593								
415.00	0.87776								
416.00	0.89742								
417.00	0.91772								
418.00	0.93211								
419.00	0.94643								
420.00	0.96009								
421.00	0.97121								
422.00	0.98260								
423.00	0.98824								
424.00	0.99247								
425.00	0.99599								
426.00	0.99621								
427.00	0.99979								
428.00	1.0000								
429.00	0.99798								
430.00	0.99546								
431.00	0.98721								
432.00	0.97808								
433.00	0.96319								
434.00	0.94686								
435.00	0.92507								
436.00	0.89739								
437.00	0.86526								
438.00	0.82654								
439.00	0.78156								
440.00	0.73240								
441.00	0.67711								
442.00	0.62461								
443.00	0.56847								
444.00	0.50939								
445.00	0.45259								
446.00	0.39612								
447.00	0.34432								
448.00	0.29578								
449.00	0.25180								
450.00	0.21369								
451.00	0.18009								
452.00	0.15127								
453.00	0.12762								
454.00	0.10777								
455.00	0.091253								
456.00	0.078346								
457.00	0.067674								
458.00	0.058939								
459.00	0.052448								
460.00	0.047681								
461.00	0.044127								
462.00	0.040634								
463.00	0.037533								
464.00	0.035928								
465.00	0.034117								
466.00	0.032470								
467.00	0.031984								
468.00	0.031461								
469.00	0.030907								
470.00	0.030747								
471.00	0.030497								
472.00	0.029837								
473.00	0.030060								
474.00	0.030831								
475.00	0.031080								
476.00	0.031682								
477.00	0.032209								
478.00	0.033226								
479.00	0.033897								
480.00	0.034731								
481.00	0.035710								
482.00	0.036639								
483.00	0.037834								
484.00	0.038449								
485.00	0.039539								
486.00	0.040176								
487.00	0.041014								
488.00	0.041915								
489.00	0.043339								
490.00	0.044213								
491.00	0.045048								
492.00	0.046018								
493.00	0.046522								
494.00	0.047692								
495.00	0.048398								
496.00	0.049064								
497.00	0.050220								
498.00	0.050551								
499.00	0.051162								
500.00	0.052021								
501.00	0.052824								
502.00	0.053978								
503.00	0.054433								
504.00	0.055223								
505.00	0.056855								
506.00	0.058156								
507.00	0.059882								
508.00	0.061665								
509.00	0.063386								
510.00	0.066391								
511.00	0.068909								
512.00	0.071840								
513.00	0.074760								
514.00	0.078234								
515.00	0.081697								
516.00	0.084707								
517.00	0.087602								
518.00	0.090504								
519.00	0.092026								
520.00	0.094503								
521.00	0.096337								
522.00	0.097609								
523.00	0.097969								
524.00	0.098697								
525.00	0.098481								
526.00	0.097050								
527.00	0.095592								
528.00	0.093768								
529.00	0.090471								
530.00	0.087253								
531.00	0.083534								
532.00	0.079938								
533.00	0.075213								
534.00	0.071205								
535.00	0.067601								
536.00	0.064647								
537.00	0.061715								
538.00	0.059728								
539.00	0.057841								
540.00	0.056475								
541.00	0.056060								
542.00	0.056585								
543.00	0.057729								
544.00	0.059329								
545.00	0.062537								
546.00	0.066438								
547.00	0.071658								
548.00	0.077286								
549.00	0.083693								
550.00	0.091462								
551.00	0.099475								
552.00	0.10822								
553.00	0.11688								
554.00	0.12551								
555.00	0.13312								
556.00	0.13977								
557.00	0.14513								
558.00	0.14855								
559.00	0.15019								
560.00	0.14985								
561.00	0.14731								
562.00	0.14259								
563.00	0.13627								
564.00	0.12851								
565.00	0.12004								
566.00	0.11107								
567.00	0.10157								
568.00	0.093158								
569.00	0.084867								
570.00	0.077474								
571.00	0.071272								
572.00	0.065768								
573.00	0.060343								
574.00	0.055387								
575.00	0.051564								
576.00	0.047651								
577.00	0.044103								
578.00	0.041118								
579.00	0.038559								
580.00	0.035769								
581.00	0.033370								
582.00	0.031463								
583.00	0.029764								
584.00	0.027890								
585.00	0.026125								
586.00	0.024833								
587.00	0.023496								
588.00	0.022226								
589.00	0.021157								
590.00	0.020348								
591.00	0.019670								
592.00	0.018967								
593.00	0.018073								
594.00	0.017616								
595.00	0.017068								
596.00	0.016815								
597.00	0.016583								
598.00	0.016422								
599.00	0.016283								
600.00	0.016330								
601.00	0.016404								
602.00	0.016418								
603.00	0.016864								
604.00	0.017572								
605.00	0.018327								
606.00	0.019363								
607.00	0.020480								
608.00	0.021921								
609.00	0.023306								
610.00	0.025487								
611.00	0.027496								
612.00	0.029600								
613.00	0.032172								
614.00	0.034698								
615.00	0.037242								
616.00	0.040149								
617.00	0.043093								
618.00	0.045819								
619.00	0.048631								
620.00	0.051565								
621.00	0.054055								
622.00	0.056305								
623.00	0.058498								
624.00	0.060103								
625.00	0.061871								
626.00	0.062710								
627.00	0.063376								
628.00	0.063974								
629.00	0.064124								
630.00	0.063947								
631.00	0.063476								
632.00	0.062861								
633.00	0.062059								
634.00	0.061282								
635.00	0.060294								
636.00	0.059265								
637.00	0.058208								
638.00	0.057433								
639.00	0.056195								
640.00	0.055123								
641.00	0.054858								
642.00	0.053761								
643.00	0.052262								
644.00	0.051516								
645.00	0.050562								
646.00	0.049350								
647.00	0.048408								
648.00	0.047380								
649.00	0.046716								
650.00	0.045603								
651.00	0.045251								
652.00	0.044294								
653.00	0.044665								
654.00	0.044914								
655.00	0.046751								
656.00	0.046983								
657.00	0.047614								
658.00	0.050699								
659.00	0.056131								
660.00	0.060791								
661.00	0.066546								
662.00	0.073050								
663.00	0.080836								
664.00	0.090947								
665.00	0.10248								
666.00	0.11530								
667.00	0.13143								
668.00	0.15057								
669.00	0.17135								
670.00	0.19525								
671.00	0.22226								
672.00	0.25011								
673.00	0.27706								
674.00	0.30629								
675.00	0.33265								
676.00	0.35872								
677.00	0.38120								
678.00	0.40375								
679.00	0.42296								
680.00	0.44166								
681.00	0.46107								
682.00	0.47950								
683.00	0.49653								
684.00	0.51127								
685.00	0.52153								
686.00	0.52613								
687.00	0.52142								
688.00	0.50826								
689.00	0.48503								
690.00	0.45362								
691.00	0.41447								
692.00	0.37240								
693.00	0.32510								
694.00	0.28061								
695.00	0.23565								
696.00	0.19584								
697.00	0.15949								
698.00	0.12958								
699.00	0.10408								
700.00	0.083337								
701.00	0.066593								
702.00	0.053098								
703.00	0.042546								
704.00	0.034803								
705.00	0.027969								
706.00	0.022748								
707.00	0.018541								
708.00	0.015662								
709.00	0.012935								
710.00	0.011165								
711.00	0.0090803								
712.00	0.0083066								
713.00	0.0066459								
714.00	0.0057042								
715.00	0.0050526								
716.00	0.0044852								
717.00	0.0041889								
718.00	0.0039066								
719.00	0.0034055								
720.00	0.0028346								
721.00	0.0030584								
722.00	0.0027098								
723.00	0.0026537								
724.00	0.0022002								
725.00	0.0021588								
726.00	0.0017915								
727.00	0.0019596								
728.00	0.0018352								
729.00	0.0017463								
730.00	0.0015459								
731.00	0.0017100								
732.00	0.0012148								
733.00	0.0014312								
734.00	0.0012725								
735.00	0.0011782								
736.00	0.0011002								
737.00	0.0011992								
738.00	0.0013587								
739.00	0.0011544								
740.00	0.0013061								
741.00	0.0010779								
742.00	0.0010928								
743.00	0.00089233								
744.00	0.0012581								
745.00	0.0012054								
746.00	0.0010748								
747.00	0.00087958								
748.00	0.00083539								
749.00	0.0012008								
750.00	0.00099332								
