Wavelength (nm)	229 FbC-Pn10Br15
300.00	0.092624
301.00	0.093126
302.00	0.093974
303.00	0.094441
304.00	0.094357
305.00	0.094339
306.00	0.093601
307.00	0.092755
308.00	0.090445
309.00	0.086728
310.00	0.083023
311.00	0.078969
312.00	0.075293
313.00	0.072478
314.00	0.070466
315.00	0.069177
316.00	0.068885
317.00	0.069518
318.00	0.071101
319.00	0.072992
320.00	0.075083
321.00	0.077454
322.00	0.079969
323.00	0.082363
324.00	0.085033
325.00	0.087347
326.00	0.089328
327.00	0.091529
328.00	0.093612
329.00	0.095718
330.00	0.097848
331.00	0.10015
332.00	0.10278
333.00	0.10544
334.00	0.10851
335.00	0.11152
336.00	0.11492
337.00	0.11853
338.00	0.12231
339.00	0.12611
340.00	0.12947
341.00	0.13242
342.00	0.13496
343.00	0.13714
344.00	0.13862
345.00	0.14013
346.00	0.14179
347.00	0.14362
348.00	0.14619
349.00	0.15000
350.00	0.15525
351.00	0.16175
352.00	0.16957
353.00	0.17863
354.00	0.18834
355.00	0.19823
356.00	0.20736
357.00	0.21529
358.00	0.22122
359.00	0.22422
360.00	0.22594
361.00	0.22539
362.00	0.22212
363.00	0.21636
364.00	0.20916
365.00	0.20137
366.00	0.19440
367.00	0.18862
368.00	0.18452
369.00	0.18322
370.00	0.18506
371.00	0.18959
372.00	0.19632
373.00	0.20516
374.00	0.21537
375.00	0.22690
376.00	0.23878
377.00	0.25143
378.00	0.26461
379.00	0.27799
380.00	0.29113
381.00	0.30617
382.00	0.32295
383.00	0.34182
384.00	0.36229
385.00	0.38461
386.00	0.40940
387.00	0.43694
388.00	0.46767
389.00	0.49993
390.00	0.53704
391.00	0.58008
392.00	0.62919
393.00	0.68215
394.00	0.74033
395.00	0.79901
396.00	0.85545
397.00	0.90664
398.00	0.94770
399.00	0.97555
400.00	0.99362
401.00	1.0000
402.00	0.99226
403.00	0.97235
404.00	0.94085
405.00	0.90322
406.00	0.86161
407.00	0.81592
408.00	0.77424
409.00	0.74110
410.00	0.71890
411.00	0.70589
412.00	0.69788
413.00	0.69318
414.00	0.69131
415.00	0.69525
416.00	0.70072
417.00	0.70036
418.00	0.68204
419.00	0.63949
420.00	0.57105
421.00	0.48711
422.00	0.40404
423.00	0.32490
424.00	0.25450
425.00	0.19760
426.00	0.15234
427.00	0.11634
428.00	0.089701
429.00	0.069810
430.00	0.055299
431.00	0.045238
432.00	0.037368
433.00	0.031199
434.00	0.027111
435.00	0.023587
436.00	0.021129
437.00	0.019287
438.00	0.017920
439.00	0.016777
440.00	0.015786
441.00	0.015215
442.00	0.014830
443.00	0.014474
444.00	0.014224
445.00	0.014102
446.00	0.014068
447.00	0.014139
448.00	0.014323
449.00	0.014416
450.00	0.014534
451.00	0.015039
452.00	0.015528
453.00	0.015907
454.00	0.016171
455.00	0.016546
456.00	0.017089
457.00	0.017622
458.00	0.018104
459.00	0.018577
460.00	0.019024
461.00	0.019586
462.00	0.020191
463.00	0.020763
464.00	0.021063
465.00	0.021541
466.00	0.021464
467.00	0.021605
468.00	0.021867
469.00	0.022260
470.00	0.022712
471.00	0.022862
472.00	0.023132
473.00	0.023282
474.00	0.023922
475.00	0.024275
476.00	0.024209
477.00	0.024424
478.00	0.024572
479.00	0.024855
480.00	0.025040
481.00	0.025008
482.00	0.025047
483.00	0.025484
484.00	0.026248
485.00	0.027402
486.00	0.028421
487.00	0.028325
488.00	0.030524
489.00	0.033375
490.00	0.036994
491.00	0.041299
492.00	0.046046
493.00	0.050583
494.00	0.054213
495.00	0.056949
496.00	0.058878
497.00	0.060121
498.00	0.061315
499.00	0.062239
500.00	0.063694
501.00	0.065999
502.00	0.068942
503.00	0.072107
504.00	0.075422
505.00	0.078483
506.00	0.080718
507.00	0.081663
508.00	0.082117
509.00	0.081714
510.00	0.081148
511.00	0.080157
512.00	0.077973
513.00	0.074561
514.00	0.069874
515.00	0.064238
516.00	0.058433
517.00	0.052458
518.00	0.046787
519.00	0.042001
520.00	0.038325
521.00	0.035581
522.00	0.033553
523.00	0.032050
524.00	0.031059
525.00	0.030724
526.00	0.031106
527.00	0.033007
528.00	0.036393
529.00	0.041127
530.00	0.046627
531.00	0.051750
532.00	0.055225
533.00	0.056236
534.00	0.054671
535.00	0.051498
536.00	0.047495
537.00	0.043311
538.00	0.039588
539.00	0.036000
540.00	0.033076
541.00	0.030607
542.00	0.028352
543.00	0.026131
544.00	0.024045
545.00	0.021898
546.00	0.019733
547.00	0.017910
548.00	0.016127
549.00	0.014353
550.00	0.012993
551.00	0.011812
552.00	0.010704
553.00	0.0098222
554.00	0.0090675
555.00	0.0084263
556.00	0.0079112
557.00	0.0075608
558.00	0.0072843
559.00	0.0070532
560.00	0.0068600
561.00	0.0066242
562.00	0.0063042
563.00	0.0060163
564.00	0.0058458
565.00	0.0057369
566.00	0.0055456
567.00	0.0054983
568.00	0.0055229
569.00	0.0055968
570.00	0.0057227
571.00	0.0059528
572.00	0.0062672
573.00	0.0067313
574.00	0.0073080
575.00	0.0076811
576.00	0.0084093
577.00	0.0095675
578.00	0.010763
579.00	0.012584
580.00	0.015303
581.00	0.018595
582.00	0.021292
583.00	0.023826
584.00	0.026473
585.00	0.028271
586.00	0.029155
587.00	0.030074
588.00	0.031001
589.00	0.032009
590.00	0.032970
591.00	0.033220
592.00	0.032791
593.00	0.031657
594.00	0.029857
595.00	0.027935
596.00	0.025676
597.00	0.023280
598.00	0.021216
599.00	0.019272
600.00	0.017707
601.00	0.016415
602.00	0.015571
603.00	0.014773
604.00	0.014191
605.00	0.013523
606.00	0.012951
607.00	0.012394
608.00	0.012112
609.00	0.012007
610.00	0.011839
611.00	0.011775
612.00	0.011823
613.00	0.011561
614.00	0.011286
615.00	0.010895
616.00	0.010663
617.00	0.010450
618.00	0.010300
619.00	0.010306
620.00	0.010768
621.00	0.011754
622.00	0.013064
623.00	0.014742
624.00	0.016818
625.00	0.019746
626.00	0.023047
627.00	0.027364
628.00	0.032683
629.00	0.038366
630.00	0.043610
631.00	0.048119
632.00	0.052783
633.00	0.058842
634.00	0.068431
635.00	0.084052
636.00	0.10751
637.00	0.13916
638.00	0.17882
639.00	0.22098
640.00	0.25757
641.00	0.28447
642.00	0.29248
643.00	0.28032
644.00	0.25401
645.00	0.22021
646.00	0.18344
647.00	0.14751
648.00	0.11546
649.00	0.088885
650.00	0.068185
651.00	0.052293
652.00	0.040374
653.00	0.031446
654.00	0.024807
655.00	0.018310
656.00	0.015234
657.00	0.012692
658.00	0.0097786
659.00	0.0077625
660.00	0.0060153
661.00	0.0050201
662.00	0.0039055
663.00	0.0031384
664.00	0.0024263
665.00	0.0019547
666.00	0.0017464
667.00	0.0016668
668.00	0.0013344
669.00	0.0011374
670.00	0.0011346
671.00	0.0010030
672.00	0.00095752
673.00	0.00096794
674.00	0.00087608
675.00	0.00076339
676.00	0.00070373
677.00	0.00072172
678.00	0.00056453
679.00	0.00057968
680.00	0.00045657
681.00	0.00051528
682.00	0.00059767
683.00	0.00046320
684.00	0.00039218
685.00	0.00042058
686.00	0.00040259
687.00	0.00041774
688.00	0.00041774
689.00	0.00038081
690.00	0.00030695
691.00	0.00032020
692.00	0.00031831
693.00	0.00028990
694.00	0.00029369
695.00	0.00019899
696.00	0.00025865
697.00	0.00025202
698.00	0.00032683
699.00	0.00027001
700.00	0.00027475
