Wavelength (nm)	Toly N+O (2020)
300.00	0.078030
301.00	0.076198
302.00	0.075201
303.00	0.073354
304.00	0.071290
305.00	0.068297
306.00	0.065207
307.00	0.062494
308.00	0.058679
309.00	0.056033
310.00	0.052545
311.00	0.049497
312.00	0.046585
313.00	0.044387
314.00	0.043641
315.00	0.041954
316.00	0.040774
317.00	0.040552
318.00	0.041278
319.00	0.040040
320.00	0.040038
321.00	0.040212
322.00	0.039857
323.00	0.039061
324.00	0.038121
325.00	0.039632
326.00	0.041670
327.00	0.042565
328.00	0.043374
329.00	0.044173
330.00	0.045616
331.00	0.044722
332.00	0.045740
333.00	0.046650
334.00	0.046298
335.00	0.047314
336.00	0.047750
337.00	0.048700
338.00	0.046864
339.00	0.047963
340.00	0.047858
341.00	0.049713
342.00	0.051440
343.00	0.052982
344.00	0.055194
345.00	0.059104
346.00	0.061586
347.00	0.065842
348.00	0.068166
349.00	0.068789
350.00	0.072231
351.00	0.075011
352.00	0.080073
353.00	0.081768
354.00	0.085456
355.00	0.087801
356.00	0.091983
357.00	0.096274
358.00	0.10025
359.00	0.10391
360.00	0.10912
361.00	0.11536
362.00	0.12180
363.00	0.12658
364.00	0.13547
365.00	0.14421
366.00	0.15571
367.00	0.16891
368.00	0.18096
369.00	0.19175
370.00	0.20661
371.00	0.22073
372.00	0.23580
373.00	0.24626
374.00	0.25851
375.00	0.27133
376.00	0.28376
377.00	0.29697
378.00	0.30756
379.00	0.31961
380.00	0.33493
381.00	0.34922
382.00	0.36758
383.00	0.38464
384.00	0.40297
385.00	0.42603
386.00	0.45148
387.00	0.48800
388.00	0.51998
389.00	0.55287
390.00	0.59503
391.00	0.63153
392.00	0.67026
393.00	0.70251
394.00	0.73323
395.00	0.76064
396.00	0.79081
397.00	0.83502
398.00	0.87682
399.00	0.92042
400.00	0.95873
401.00	0.98697
402.00	1.0000
403.00	0.99062
404.00	0.95924
405.00	0.91113
406.00	0.84197
407.00	0.75692
408.00	0.65708
409.00	0.55670
410.00	0.47020
411.00	0.39209
412.00	0.31695
413.00	0.25674
414.00	0.20806
415.00	0.17605
416.00	0.15285
417.00	0.13311
418.00	0.11695
419.00	0.10212
420.00	0.091537
421.00	0.080419
422.00	0.068780
423.00	0.059371
424.00	0.048612
425.00	0.040705
426.00	0.035177
427.00	0.029080
428.00	0.024715
429.00	0.020770
430.00	0.017136
431.00	0.015274
432.00	0.013119
433.00	0.012296
434.00	0.010358
435.00	0.0095325
436.00	0.0087963
437.00	0.0084068
438.00	0.0080503
439.00	0.0076293
440.00	0.0072424
441.00	0.0071210
442.00	0.0068233
443.00	0.0068258
444.00	0.0066530
445.00	0.0067184
446.00	0.0066857
447.00	0.0068289
448.00	0.0070305
449.00	0.0071061
450.00	0.0072244
451.00	0.0073239
452.00	0.0075681
453.00	0.0076464
454.00	0.0074970
455.00	0.0078239
456.00	0.0077438
457.00	0.0078004
458.00	0.0081214
459.00	0.0086014
460.00	0.0087750
461.00	0.0085621
462.00	0.0089775
463.00	0.0097318
464.00	0.010450
465.00	0.010994
466.00	0.011296
467.00	0.012313
468.00	0.013005
469.00	0.013788
470.00	0.014526
471.00	0.015217
472.00	0.016401
473.00	0.017164
474.00	0.017997
475.00	0.018409
476.00	0.019381
477.00	0.019772
478.00	0.019888
479.00	0.020469
480.00	0.020309
481.00	0.020665
482.00	0.020119
483.00	0.020038
484.00	0.019328
485.00	0.018930
486.00	0.018892
487.00	0.019380
488.00	0.018946
489.00	0.019015
490.00	0.019630
491.00	0.020120
492.00	0.020669
493.00	0.020936
494.00	0.022277
495.00	0.023805
496.00	0.025221
497.00	0.026275
498.00	0.027417
499.00	0.028541
500.00	0.029461
501.00	0.030708
502.00	0.031200
503.00	0.031749
504.00	0.031686
505.00	0.031183
506.00	0.030550
507.00	0.029446
508.00	0.028413
509.00	0.026891
510.00	0.025274
511.00	0.023852
512.00	0.022291
513.00	0.020703
514.00	0.019207
515.00	0.018049
516.00	0.016975
517.00	0.015707
518.00	0.014419
519.00	0.013313
520.00	0.012647
521.00	0.012553
522.00	0.011890
523.00	0.011256
524.00	0.010820
525.00	0.010625
526.00	0.010274
527.00	0.010508
528.00	0.011129
529.00	0.011694
530.00	0.012395
531.00	0.013399
532.00	0.014675
533.00	0.016029
534.00	0.016861
535.00	0.018134
536.00	0.020448
537.00	0.021498
538.00	0.022767
539.00	0.024170
540.00	0.025412
541.00	0.026331
542.00	0.026898
543.00	0.027830
544.00	0.028057
545.00	0.029212
546.00	0.029395
547.00	0.028819
548.00	0.028172
549.00	0.027326
550.00	0.026944
551.00	0.026205
552.00	0.025312
553.00	0.023883
554.00	0.022218
555.00	0.020843
556.00	0.019107
557.00	0.017432
558.00	0.015914
559.00	0.015011
560.00	0.014051
561.00	0.013154
562.00	0.012354
563.00	0.011839
564.00	0.011577
565.00	0.011179
566.00	0.011419
567.00	0.011552
568.00	0.011576
569.00	0.011388
570.00	0.010850
571.00	0.011126
572.00	0.010268
573.00	0.010105
574.00	0.0097779
575.00	0.0093327
576.00	0.0087866
577.00	0.0080330
578.00	0.0075257
579.00	0.0068628
580.00	0.0065029
581.00	0.0060645
582.00	0.0058032
583.00	0.0056279
584.00	0.0059265
585.00	0.0062725
586.00	0.0056699
587.00	0.0061655
588.00	0.0055388
589.00	0.0054330
590.00	0.0052411
591.00	0.0050168
592.00	0.0054231
593.00	0.0066050
594.00	0.0058560
595.00	0.0055998
596.00	0.0055001
597.00	0.0049759
598.00	0.0041142
599.00	0.0040858
600.00	0.0035904
601.00	0.0036247
602.00	0.0036225
603.00	0.0039102
604.00	0.0042020
605.00	0.0048448
606.00	0.0056372
607.00	0.0069479
608.00	0.0086124
609.00	0.011083
610.00	0.014859
611.00	0.018054
612.00	0.022102
613.00	0.024845
614.00	0.025743
615.00	0.025778
616.00	0.023653
617.00	0.023711
618.00	0.022250
619.00	0.024089
620.00	0.025304
621.00	0.025406
622.00	0.024149
623.00	0.022783
624.00	0.020965
625.00	0.019529
626.00	0.017529
627.00	0.017139
628.00	0.016188
629.00	0.015502
630.00	0.014258
631.00	0.012751
632.00	0.013510
633.00	0.012867
634.00	0.012737
635.00	0.012289
636.00	0.012605
637.00	0.013136
638.00	0.014131
639.00	0.015247
640.00	0.017313
641.00	0.019958
642.00	0.022998
643.00	0.025944
644.00	0.027913
645.00	0.028543
646.00	0.026973
647.00	0.024766
648.00	0.021449
649.00	0.018122
650.00	0.014384
651.00	0.011776
652.00	0.010194
653.00	0.0094650
654.00	0.0085806
655.00	0.0086822
656.00	0.0083046
657.00	0.0087653
658.00	0.0088511
659.00	0.0098976
660.00	0.010151
661.00	0.010119
662.00	0.012774
663.00	0.015118
664.00	0.018000
665.00	0.022144
666.00	0.025766
667.00	0.031180
668.00	0.038438
669.00	0.049281
670.00	0.065941
671.00	0.092090
672.00	0.12989
673.00	0.18170
674.00	0.25277
675.00	0.32347
676.00	0.40644
677.00	0.45204
678.00	0.45034
679.00	0.40014
680.00	0.33097
681.00	0.25872
682.00	0.20854
683.00	0.15195
684.00	0.11160
685.00	0.080540
686.00	0.057226
687.00	0.040263
688.00	0.029765
689.00	0.022186
690.00	0.016614
691.00	0.013093
692.00	0.010549
693.00	0.0082076
694.00	0.0068040
695.00	0.0060859
696.00	0.0047492
697.00	0.0043723
698.00	0.0040074
699.00	0.0024710
700.00	0.0019503
701.00	0.0018639
702.00	0.0017464
703.00	0.0020679
704.00	0.0018843
705.00	0.0028766
706.00	0.0012508
707.00	0.00072734
708.00	0.00025935
709.00	3.8669e-05
710.00	0.00033740
711.00	0.0014070
712.00	0.00072113
713.00	0.0020939
714.00	0.0023936
715.00	0.0017952
716.00	0.0017762
717.00	0.0012258
718.00	0.0023003
719.00	0.0023117
720.00	0.0025053
721.00	0.0016781
722.00	0.0012224
723.00	0.00097959
724.00	0.00099958
725.00	0.00037704
726.00	0.00087723
727.00	0.0011270
728.00	0.00084904
729.00	0.0012644
730.00	0.0014862
731.00	0.0017263
732.00	0.00079173
733.00	0.0014098
734.00	0.0015731
735.00	0.0013051
736.00	0.0014466
737.00	0.0016253
738.00	0.0016340
739.00	0.0015204
740.00	0.0018098
741.00	0.0011109
742.00	0.0010563
743.00	0.00036230
744.00	-0.00056868
745.00	-0.00072230
746.00	0.00042826
747.00	0.00078186
748.00	0.0010514
749.00	0.0015508
750.00	0.0010419
751.00	0.0010224
752.00	0.0018196
753.00	0.0012124
754.00	0.0017170
755.00	0.0017791
756.00	0.0016194
757.00	0.00097961
758.00	-0.00011401
759.00	-0.0018451
760.00	-0.0024277
761.00	-0.0015218
762.00	-0.00044211
763.00	-0.00088641
764.00	0.00092210
765.00	0.00080617
766.00	0.00056856
767.00	0.0018992
768.00	0.0013806
769.00	0.00093010
770.00	-1.3791e-05
771.00	0.0021708
772.00	0.00020912
773.00	0.00056121
774.00	0.00086590
775.00	0.00055265
776.00	0.0017870
777.00	0.0023136
778.00	0.0016153
779.00	0.0023588
780.00	0.0022856
781.00	0.0025798
782.00	0.0023796
783.00	0.0017072
784.00	0.0019887
785.00	0.0019620
786.00	0.0024057
787.00	0.0025178
788.00	0.0012835
789.00	0.0012431
790.00	0.00070674
791.00	-0.00022387
792.00	0.00085636
793.00	0.00093769
794.00	0.00092254
795.00	0.00081302
796.00	0.00036747
797.00	0.00031418
798.00	6.8170e-05
799.00	-2.5175e-05
800.00	0.00037169
