Wavelength (nm)	387 23.abs
300.00	0.16977
301.00	0.16995
302.00	0.16969
303.00	0.17025
304.00	0.17131
305.00	0.17223
306.00	0.17352
307.00	0.17551
308.00	0.17758
309.00	0.17979
310.00	0.18216
311.00	0.18481
312.00	0.18720
313.00	0.18965
314.00	0.19229
315.00	0.19455
316.00	0.19718
317.00	0.19957
318.00	0.20145
319.00	0.20363
320.00	0.20493
321.00	0.20637
322.00	0.20699
323.00	0.20736
324.00	0.20654
325.00	0.20517
326.00	0.20320
327.00	0.20022
328.00	0.19714
329.00	0.19336
330.00	0.18933
331.00	0.18562
332.00	0.18153
333.00	0.17773
334.00	0.17422
335.00	0.17133
336.00	0.16884
337.00	0.16673
338.00	0.16511
339.00	0.16436
340.00	0.16398
341.00	0.16421
342.00	0.16516
343.00	0.16629
344.00	0.16792
345.00	0.16977
346.00	0.17192
347.00	0.17430
348.00	0.17666
349.00	0.17871
350.00	0.18099
351.00	0.18354
352.00	0.18567
353.00	0.18856
354.00	0.19138
355.00	0.19304
356.00	0.19479
357.00	0.19554
358.00	0.19692
359.00	0.20151
360.00	0.20839
361.00	0.21524
362.00	0.22101
363.00	0.22574
364.00	0.22922
365.00	0.23336
366.00	0.23985
367.00	0.24798
368.00	0.25545
369.00	0.26105
370.00	0.26711
371.00	0.27359
372.00	0.27907
373.00	0.28467
374.00	0.29006
375.00	0.29532
376.00	0.29935
377.00	0.30290
378.00	0.30628
379.00	0.30830
380.00	0.30872
381.00	0.30787
382.00	0.30823
383.00	0.30778
384.00	0.30677
385.00	0.30802
386.00	0.30972
387.00	0.31412
388.00	0.32052
389.00	0.32585
390.00	0.33264
391.00	0.34445
392.00	0.36087
393.00	0.38027
394.00	0.39771
395.00	0.41704
396.00	0.43707
397.00	0.45690
398.00	0.47733
399.00	0.49500
400.00	0.50691
401.00	0.51646
402.00	0.52409
403.00	0.52942
404.00	0.53194
405.00	0.53441
406.00	0.53440
407.00	0.53260
408.00	0.53376
409.00	0.53840
410.00	0.54568
411.00	0.55812
412.00	0.57592
413.00	0.59933
414.00	0.62438
415.00	0.65602
416.00	0.69442
417.00	0.74153
418.00	0.79213
419.00	0.84283
420.00	0.89657
421.00	0.94350
422.00	0.98054
423.00	0.99944
424.00	1.00000
425.00	0.97195
426.00	0.92116
427.00	0.84838
428.00	0.76882
429.00	0.66869
430.00	0.56976
431.00	0.48250
432.00	0.39878
433.00	0.32343
434.00	0.26497
435.00	0.21882
436.00	0.18135
437.00	0.15398
438.00	0.13117
439.00	0.11360
440.00	0.098631
441.00	0.087943
442.00	0.078320
443.00	0.070089
444.00	0.065327
445.00	0.060979
446.00	0.057006
447.00	0.053483
448.00	0.050914
449.00	0.048190
450.00	0.045842
451.00	0.043072
452.00	0.041158
453.00	0.039634
454.00	0.038080
455.00	0.036112
456.00	0.035456
457.00	0.035393
458.00	0.035805
459.00	0.034625
460.00	0.030812
461.00	0.029945
462.00	0.029315
463.00	0.031549
464.00	0.032573
465.00	0.031912
466.00	0.029347
467.00	0.028132
468.00	0.030084
469.00	0.027861
470.00	0.024747
471.00	0.025140
472.00	0.026571
473.00	0.028275
474.00	0.026357
475.00	0.025747
476.00	0.027497
477.00	0.026442
478.00	0.025839
479.00	0.025489
480.00	0.025853
481.00	0.026160
482.00	0.025916
483.00	0.027359
484.00	0.028381
485.00	0.032409
486.00	0.035510
487.00	0.029877
488.00	0.029782
489.00	0.030753
490.00	0.028808
491.00	0.026575
492.00	0.025861
493.00	0.028193
494.00	0.026007
495.00	0.023747
496.00	0.025420
497.00	0.025240
498.00	0.025154
499.00	0.025029
500.00	0.022886
501.00	0.023795
502.00	0.023636
503.00	0.023348
504.00	0.022747
505.00	0.023002
506.00	0.022064
507.00	0.022027
508.00	0.022497
509.00	0.022879
510.00	0.024400
511.00	0.025834
512.00	0.026523
513.00	0.026570
514.00	0.026799
515.00	0.027576
516.00	0.028144
517.00	0.029081
518.00	0.030236
519.00	0.031318
520.00	0.031470
521.00	0.031162
522.00	0.031409
523.00	0.031449
524.00	0.031719
525.00	0.031940
526.00	0.032587
527.00	0.032432
528.00	0.031553
529.00	0.031333
530.00	0.031406
531.00	0.030558
532.00	0.030220
533.00	0.030259
534.00	0.029572
535.00	0.028865
536.00	0.027703
537.00	0.027635
538.00	0.027941
539.00	0.027081
540.00	0.026232
541.00	0.025992
542.00	0.026537
543.00	0.025583
544.00	0.025490
545.00	0.026009
546.00	0.026140
547.00	0.027505
548.00	0.029033
549.00	0.028818
550.00	0.029507
551.00	0.030689
552.00	0.031964
553.00	0.033755
554.00	0.035225
555.00	0.037327
556.00	0.038678
557.00	0.040487
558.00	0.041900
559.00	0.043005
560.00	0.044813
561.00	0.046057
562.00	0.046961
563.00	0.047768
564.00	0.048920
565.00	0.049479
566.00	0.050227
567.00	0.051615
568.00	0.052936
569.00	0.056044
570.00	0.056497
571.00	0.057264
572.00	0.056145
573.00	0.053665
574.00	0.054198
575.00	0.057143
576.00	0.056904
577.00	0.051356
578.00	0.052567
579.00	0.047884
580.00	0.047902
581.00	0.047439
582.00	0.044201
583.00	0.035096
584.00	0.040649
585.00	0.044447
586.00	0.040977
587.00	0.043215
588.00	0.048501
589.00	0.047731
590.00	0.050659
591.00	0.056920
592.00	0.064606
593.00	0.070629
594.00	0.073382
595.00	0.077138
596.00	0.079470
597.00	0.084586
598.00	0.089020
599.00	0.091773
600.00	0.094946
601.00	0.098320
602.00	0.099043
603.00	0.099834
604.00	0.099599
605.00	0.10041
606.00	0.10194
607.00	0.10172
608.00	0.10120
609.00	0.099321
610.00	0.099283
611.00	0.096195
612.00	0.092861
613.00	0.089924
614.00	0.087185
615.00	0.082882
616.00	0.078741
617.00	0.074131
618.00	0.071080
619.00	0.070140
620.00	0.068609
621.00	0.064963
622.00	0.064890
623.00	0.063915
624.00	0.061603
625.00	0.060380
626.00	0.059642
627.00	0.060921
628.00	0.062184
629.00	0.064272
630.00	0.067062
631.00	0.071786
632.00	0.080217
633.00	0.086689
634.00	0.090810
635.00	0.098978
636.00	0.11236
637.00	0.12746
638.00	0.14582
639.00	0.16095
640.00	0.17862
641.00	0.20392
642.00	0.23648
643.00	0.27956
644.00	0.32951
645.00	0.38664
646.00	0.44673
647.00	0.50797
648.00	0.56717
649.00	0.62064
650.00	0.66168
651.00	0.69056
652.00	0.70298
653.00	0.69878
654.00	0.68178
655.00	0.66144
656.00	0.62511
657.00	0.56181
658.00	0.48959
659.00	0.42732
660.00	0.36692
661.00	0.30855
662.00	0.25665
663.00	0.21017
664.00	0.17096
665.00	0.13772
666.00	0.10943
667.00	0.087149
668.00	0.069638
669.00	0.056055
670.00	0.044967
671.00	0.036245
672.00	0.029253
673.00	0.023342
674.00	0.019054
675.00	0.015640
676.00	0.013154
677.00	0.010728
678.00	0.0090638
679.00	0.0075654
680.00	0.0063826
681.00	0.0051590
682.00	0.0041049
683.00	0.0034227
684.00	0.0031164
685.00	0.0040385
686.00	0.0029214
687.00	0.0016891
688.00	0.0014545
689.00	0.0010940
690.00	0.0010900
691.00	0.0010893
692.00	0.00081253
693.00	0.0011067
694.00	0.00032736
695.00	0.00022684
696.00	0.00017055
697.00	0.0011516
698.00	0.00053711
699.00	0.00014910
700.00	0.00015245
